# OpenSignals Text File Format. Version 1
# {"98:D3:11:FE:05:A2": {"position": 0, "device": "bitalino_rev", "device name": "98:D3:11:FE:05:A2", "device connection": "BTH98:D3:11:FE:05:A2", "sampling rate": 1000, "resolution": [4, 1, 1, 1, 1, 10, 10], "firmware version": 1282, "comments": "", "keywords": "", "mode": 0, "sync interval": 2, "date": "2026-6-5", "time": "12:25:10.749", "channels": [4, 5], "sensor": ["EMGBITREV", "RAW"], "label": ["A4", "A5"], "column": ["nSeq", "I1", "I2", "O1", "O2", "A4", "A5"], "special": [{}, {}], "digital IO": [0, 0, 1, 1]}}
# EndOfHeader
0	0	0	0	0	508	3	
1	0	0	0	0	506	6	
2	0	0	0	0	506	3	
3	0	0	0	0	507	3	
4	0	0	0	0	504	3	
5	0	0	0	0	507	0	
6	0	0	0	0	506	3	
7	0	0	0	0	505	3	
8	0	0	0	0	507	3	
9	0	0	0	0	508	6	
10	0	0	0	0	508	3	
11	0	0	0	0	508	3	
12	0	0	0	0	507	3	
13	0	0	0	0	506	0	
14	0	0	0	0	505	3	
15	0	0	0	0	508	3	
0	0	0	0	0	505	3	
1	0	0	0	0	505	6	
2	0	0	0	0	506	3	
3	0	0	0	0	508	3	
4	0	0	0	0	507	3	
5	0	0	0	0	507	0	
6	0	0	0	0	506	3	
7	0	0	0	0	509	3	
8	0	0	0	0	505	3	
9	0	0	0	0	507	6	
10	0	0	0	0	506	3	
11	0	0	0	0	506	3	
12	0	0	0	0	506	3	
13	0	0	0	0	507	0	
14	0	0	0	0	508	3	
15	0	0	0	0	504	3	
0	0	0	0	0	505	3	
1	0	0	0	0	506	6	
2	0	0	0	0	506	3	
3	0	0	0	0	506	3	
4	0	0	0	0	508	3	
5	0	0	0	0	506	0	
6	0	0	0	0	507	3	
7	0	0	0	0	506	3	
8	0	0	0	0	506	3	
9	0	0	0	0	507	6	
10	0	0	0	0	508	3	
11	0	0	0	0	507	3	
12	0	0	0	0	507	3	
13	0	0	0	0	505	0	
14	0	0	0	0	506	3	
15	0	0	0	0	507	3	
0	0	0	0	0	507	3	
1	0	0	0	0	506	6	
2	0	0	0	0	505	3	
3	0	0	0	0	505	3	
4	0	0	0	0	507	3	
5	0	0	0	0	508	0	
6	0	0	0	0	508	3	
7	0	0	0	0	506	3	
8	0	0	0	0	507	3	
9	0	0	0	0	506	6	
10	0	0	0	0	506	3	
11	0	0	0	0	506	3	
12	0	0	0	0	507	3	
13	0	0	0	0	507	0	
14	0	0	0	0	508	3	
15	0	0	0	0	507	3	
0	0	0	0	0	507	3	
1	0	0	0	0	508	6	
2	0	0	0	0	508	3	
3	0	0	0	0	509	3	
4	0	0	0	0	509	3	
5	0	0	0	0	507	0	
6	0	0	0	0	504	3	
7	0	0	0	0	505	3	
8	0	0	0	0	504	3	
9	0	0	0	0	508	6	
10	0	0	0	0	506	3	
11	0	0	0	0	504	3	
12	0	0	0	0	507	3	
13	0	0	0	0	507	0	
14	0	0	0	0	508	3	
15	0	0	0	0	506	3	
0	0	0	0	0	507	3	
1	0	0	0	0	509	6	
2	0	0	0	0	508	3	
3	0	0	0	0	508	3	
4	0	0	0	0	505	3	
5	0	0	0	0	507	0	
6	0	0	0	0	505	3	
7	0	0	0	0	504	3	
8	0	0	0	0	508	3	
9	0	0	0	0	506	6	
10	0	0	0	0	508	3	
11	0	0	0	0	507	3	
12	0	0	0	0	508	3	
13	0	0	0	0	508	0	
14	0	0	0	0	507	3	
15	0	0	0	0	506	3	
0	0	0	0	0	508	3	
1	0	0	0	0	507	6	
2	0	0	0	0	504	3	
3	0	0	0	0	507	3	
4	0	0	0	0	508	3	
5	0	0	0	0	507	0	
6	0	0	0	0	508	3	
7	0	0	0	0	505	3	
8	0	0	0	0	505	3	
9	0	0	0	0	505	6	
10	0	0	0	0	504	3	
11	0	0	0	0	504	3	
12	0	0	0	0	507	3	
13	0	0	0	0	508	0	
14	0	0	0	0	507	3	
15	0	0	0	0	506	3	
0	0	0	0	0	507	3	
1	0	0	0	0	507	6	
2	0	0	0	0	507	3	
3	0	0	0	0	506	3	
4	0	0	0	0	508	3	
5	0	0	0	0	506	0	
6	0	0	0	0	506	3	
7	0	0	0	0	507	3	
8	0	0	0	0	508	3	
9	0	0	0	0	505	6	
10	0	0	0	0	507	3	
11	0	0	0	0	507	3	
12	0	0	0	0	507	3	
13	0	0	0	0	508	0	
14	0	0	0	0	507	3	
15	0	0	0	0	509	3	
0	0	0	0	0	507	3	
1	0	0	0	0	506	6	
2	0	0	0	0	505	3	
3	0	0	0	0	507	3	
4	0	0	0	0	507	3	
5	0	0	0	0	508	0	
6	0	0	0	0	506	3	
7	0	0	0	0	507	3	
8	0	0	0	0	508	3	
9	0	0	0	0	505	6	
10	0	0	0	0	508	3	
11	0	0	0	0	506	3	
12	0	0	0	0	507	3	
13	0	0	0	0	506	0	
14	0	0	0	0	508	3	
15	0	0	0	0	507	3	
0	0	0	0	0	507	3	
1	0	0	0	0	508	6	
2	0	0	0	0	506	3	
3	0	0	0	0	507	3	
4	0	0	0	0	506	3	
5	0	0	0	0	508	0	
6	0	0	0	0	506	3	
7	0	0	0	0	508	3	
8	0	0	0	0	507	3	
9	0	0	0	0	505	6	
10	0	0	0	0	505	3	
11	0	0	0	0	507	3	
12	0	0	0	0	505	3	
13	0	0	0	0	507	0	
14	0	0	0	0	508	3	
15	0	0	0	0	507	3	
0	0	0	0	0	505	3	
1	0	0	0	0	507	6	
2	0	0	0	0	507	3	
3	0	0	0	0	508	3	
4	0	0	0	0	506	3	
5	0	0	0	0	506	0	
6	0	0	0	0	508	3	
7	0	0	0	0	505	3	
8	0	0	0	0	507	3	
9	0	0	0	0	508	6	
10	0	0	0	0	508	3	
11	0	0	0	0	507	3	
12	0	0	0	0	504	3	
13	0	0	0	0	508	0	
14	0	0	0	0	507	3	
15	0	0	0	0	507	3	
0	0	0	0	0	508	3	
1	0	0	0	0	508	6	
2	0	0	0	0	508	3	
3	0	0	0	0	506	3	
4	0	0	0	0	508	3	
5	0	0	0	0	508	0	
6	0	0	0	0	508	3	
7	0	0	0	0	505	3	
8	0	0	0	0	506	3	
9	0	0	0	0	506	6	
10	0	0	0	0	507	3	
11	0	0	0	0	505	3	
12	0	0	0	0	507	3	
13	0	0	0	0	506	0	
14	0	0	0	0	507	3	
15	0	0	0	0	507	3	
0	0	0	0	0	507	3	
1	0	0	0	0	507	6	
2	0	0	0	0	507	3	
3	0	0	0	0	508	3	
4	0	0	0	0	507	3	
5	0	0	0	0	508	0	
6	0	0	0	0	506	3	
7	0	0	0	0	507	3	
8	0	0	0	0	508	3	
9	0	0	0	0	505	6	
10	0	0	0	0	505	3	
11	0	0	0	0	508	3	
12	0	0	0	0	505	3	
13	0	0	0	0	506	0	
14	0	0	0	0	505	3	
15	0	0	0	0	505	3	
0	0	0	0	0	508	3	
1	0	0	0	0	508	6	
2	0	0	0	0	509	3	
3	0	0	0	0	505	3	
4	0	0	0	0	505	3	
5	0	0	0	0	508	0	
6	0	0	0	0	507	3	
7	0	0	0	0	507	3	
8	0	0	0	0	506	3	
9	0	0	0	0	505	6	
10	0	0	0	0	507	3	
11	0	0	0	0	506	3	
12	0	0	0	0	505	3	
13	0	0	0	0	508	0	
14	0	0	0	0	508	3	
15	0	0	0	0	505	3	
0	0	0	0	0	507	3	
1	0	0	0	0	508	6	
2	0	0	0	0	510	3	
3	0	0	0	0	508	3	
4	0	0	0	0	507	3	
5	0	0	0	0	507	0	
6	0	0	0	0	507	3	
7	0	0	0	0	507	3	
8	0	0	0	0	506	3	
9	0	0	0	0	508	6	
10	0	0	0	0	507	3	
11	0	0	0	0	505	3	
12	0	0	0	0	506	3	
13	0	0	0	0	506	0	
14	0	0	0	0	507	3	
15	0	0	0	0	505	3	
0	0	0	0	0	507	3	
1	0	0	0	0	507	6	
2	0	0	0	0	507	3	
3	0	0	0	0	509	3	
4	0	0	0	0	507	3	
5	0	0	0	0	507	0	
6	0	0	0	0	508	3	
7	0	0	0	0	507	3	
8	0	0	0	0	505	3	
9	0	0	0	0	507	6	
10	0	0	0	0	506	3	
11	0	0	0	0	506	3	
12	0	0	0	0	507	3	
13	0	0	0	0	505	0	
14	0	0	0	0	506	3	
15	0	0	0	0	508	3	
0	0	0	0	0	507	3	
1	0	0	0	0	507	6	
2	0	0	0	0	507	3	
3	0	0	0	0	505	3	
4	0	0	0	0	507	3	
5	0	0	0	0	507	0	
6	0	0	0	0	505	3	
7	0	0	0	0	507	3	
8	0	0	0	0	507	3	
9	0	0	0	0	508	6	
10	0	0	0	0	508	3	
11	0	0	0	0	509	3	
12	0	0	0	0	507	3	
13	0	0	0	0	505	0	
14	0	0	0	0	506	3	
15	0	0	0	0	508	3	
0	0	0	0	0	507	3	
1	0	0	0	0	507	6	
2	0	0	0	0	506	3	
3	0	0	0	0	506	3	
4	0	0	0	0	506	3	
5	0	0	0	0	507	0	
6	0	0	0	0	505	3	
7	0	0	0	0	507	3	
8	0	0	0	0	507	3	
9	0	0	0	0	507	6	
10	0	0	0	0	505	3	
11	0	0	0	0	508	3	
12	0	0	0	0	506	3	
13	0	0	0	0	509	0	
14	0	0	0	0	507	3	
15	0	0	0	0	505	3	
0	0	0	0	0	507	3	
1	0	0	0	0	506	6	
2	0	0	0	0	507	3	
3	0	0	0	0	506	3	
4	0	0	0	0	508	3	
5	0	0	0	0	508	0	
6	0	0	0	0	507	3	
7	0	0	0	0	506	3	
8	0	0	0	0	506	3	
9	0	0	0	0	507	6	
10	0	0	0	0	507	3	
11	0	0	0	0	507	3	
12	0	0	0	0	506	3	
13	0	0	0	0	509	0	
14	0	0	0	0	507	3	
15	0	0	0	0	508	3	
0	0	0	0	0	505	3	
1	0	0	0	0	507	6	
2	0	0	0	0	505	3	
3	0	0	0	0	506	3	
4	0	0	0	0	509	3	
5	0	0	0	0	508	0	
6	0	0	0	0	508	3	
7	0	0	0	0	508	3	
8	0	0	0	0	507	3	
9	0	0	0	0	508	6	
10	0	0	0	0	506	3	
11	0	0	0	0	508	3	
12	0	0	0	0	505	3	
13	0	0	0	0	505	0	
14	0	0	0	0	506	3	
15	0	0	0	0	506	3	
0	0	0	0	0	505	3	
1	0	0	0	0	508	6	
2	0	0	0	0	508	3	
3	0	0	0	0	508	3	
4	0	0	0	0	506	3	
5	0	0	0	0	508	0	
6	0	0	0	0	507	3	
7	0	0	0	0	507	3	
8	0	0	0	0	504	3	
9	0	0	0	0	506	6	
10	0	0	0	0	507	3	
11	0	0	0	0	507	3	
12	0	0	0	0	507	3	
13	0	0	0	0	507	0	
14	0	0	0	0	505	3	
15	0	0	0	0	507	3	
0	0	0	0	0	505	3	
1	0	0	0	0	506	6	
2	0	0	0	0	507	3	
3	0	0	0	0	509	3	
4	0	0	0	0	506	3	
5	0	0	0	0	504	0	
6	0	0	0	0	508	3	
7	0	0	0	0	507	3	
8	0	0	0	0	508	3	
9	0	0	0	0	507	6	
10	0	0	0	0	508	3	
11	0	0	0	0	508	3	
12	0	0	0	0	508	3	
13	0	0	0	0	506	0	
14	0	0	0	0	506	3	
15	0	0	0	0	508	3	
0	0	0	0	0	507	3	
1	0	0	0	0	505	6	
2	0	0	0	0	507	3	
3	0	0	0	0	507	3	
4	0	0	0	0	507	3	
5	0	0	0	0	505	0	
6	0	0	0	0	507	3	
7	0	0	0	0	507	3	
8	0	0	0	0	508	3	
9	0	0	0	0	507	6	
10	0	0	0	0	508	3	
11	0	0	0	0	505	3	
12	0	0	0	0	506	3	
13	0	0	0	0	506	0	
14	0	0	0	0	507	3	
15	0	0	0	0	507	3	
0	0	0	0	0	507	3	
1	0	0	0	0	506	6	
2	0	0	0	0	507	3	
3	0	0	0	0	508	3	
4	0	0	0	0	508	3	
5	0	0	0	0	506	0	
6	0	0	0	0	508	3	
7	0	0	0	0	505	3	
8	0	0	0	0	505	3	
9	0	0	0	0	507	6	
10	0	0	0	0	505	3	
11	0	0	0	0	505	3	
12	0	0	0	0	506	3	
13	0	0	0	0	506	0	
14	0	0	0	0	506	3	
15	0	0	0	0	506	3	
0	0	0	0	0	506	3	
1	0	0	0	0	505	6	
2	0	0	0	0	509	3	
3	0	0	0	0	506	3	
4	0	0	0	0	508	3	
5	0	0	0	0	507	0	
6	0	0	0	0	507	3	
7	0	0	0	0	507	3	
8	0	0	0	0	507	3	
9	0	0	0	0	507	6	
10	0	0	0	0	508	3	
11	0	0	0	0	507	3	
12	0	0	0	0	506	3	
13	0	0	0	0	507	0	
14	0	0	0	0	507	3	
15	0	0	0	0	507	3	
0	0	0	0	0	506	3	
1	0	0	0	0	505	6	
2	0	0	0	0	503	3	
3	0	0	0	0	507	3	
4	0	0	0	0	507	3	
5	0	0	0	0	507	0	
6	0	0	0	0	507	3	
7	0	0	0	0	509	3	
8	0	0	0	0	507	3	
9	0	0	0	0	505	6	
10	0	0	0	0	507	3	
11	0	0	0	0	506	3	
12	0	0	0	0	506	3	
13	0	0	0	0	506	0	
14	0	0	0	0	507	3	
15	0	0	0	0	507	3	
0	0	0	0	0	507	3	
1	0	0	0	0	507	6	
2	0	0	0	0	508	3	
3	0	0	0	0	505	3	
4	0	0	0	0	506	3	
5	0	0	0	0	508	0	
6	0	0	0	0	505	3	
7	0	0	0	0	508	3	
8	0	0	0	0	507	3	
9	0	0	0	0	506	6	
10	0	0	0	0	508	3	
11	0	0	0	0	508	3	
12	0	0	0	0	505	3	
13	0	0	0	0	507	0	
14	0	0	0	0	506	3	
15	0	0	0	0	507	3	
0	0	0	0	0	506	3	
1	0	0	0	0	507	6	
2	0	0	0	0	507	3	
3	0	0	0	0	508	3	
4	0	0	0	0	506	3	
5	0	0	0	0	507	0	
6	0	0	0	0	508	3	
7	0	0	0	0	506	3	
8	0	0	0	0	504	3	
9	0	0	0	0	506	6	
10	0	0	0	0	505	3	
11	0	0	0	0	507	3	
12	0	0	0	0	506	3	
13	0	0	0	0	509	0	
14	0	0	0	0	509	3	
15	0	0	0	0	507	3	
0	0	0	0	0	506	3	
1	0	0	0	0	507	6	
2	0	0	0	0	507	3	
3	0	0	0	0	504	3	
4	0	0	0	0	508	3	
5	0	0	0	0	507	0	
6	0	0	0	0	508	3	
7	0	0	0	0	508	3	
8	0	0	0	0	506	3	
9	0	0	0	0	504	6	
10	0	0	0	0	505	3	
11	0	0	0	0	508	3	
12	0	0	0	0	508	3	
13	0	0	0	0	507	0	
14	0	0	0	0	508	3	
15	0	0	0	0	509	3	
0	0	0	0	0	508	3	
1	0	0	0	0	506	6	
2	0	0	0	0	506	3	
3	0	0	0	0	505	3	
4	0	0	0	0	505	3	
5	0	0	0	0	507	0	
6	0	0	0	0	507	3	
7	0	0	0	0	507	3	
8	0	0	0	0	504	3	
9	0	0	0	0	508	6	
10	0	0	0	0	509	3	
11	0	0	0	0	506	3	
12	0	0	0	0	508	3	
13	0	0	0	0	505	0	
14	0	0	0	0	506	3	
15	0	0	0	0	507	3	
0	0	0	0	0	505	3	
1	0	0	0	0	507	6	
2	0	0	0	0	507	3	
3	0	0	0	0	507	3	
4	0	0	0	0	507	3	
5	0	0	0	0	508	0	
6	0	0	0	0	508	3	
7	0	0	0	0	505	3	
8	0	0	0	0	507	3	
9	0	0	0	0	506	6	
10	0	0	0	0	507	3	
11	0	0	0	0	507	3	
12	0	0	0	0	508	3	
13	0	0	0	0	505	0	
14	0	0	0	0	507	3	
15	0	0	0	0	507	3	
0	0	0	0	0	506	3	
1	0	0	0	0	507	6	
2	0	0	0	0	507	3	
3	0	0	0	0	506	3	
4	0	0	0	0	507	3	
5	0	0	0	0	507	0	
6	0	0	0	0	508	3	
7	0	0	0	0	508	3	
8	0	0	0	0	507	3	
9	0	0	0	0	506	6	
10	0	0	0	0	507	3	
11	0	0	0	0	508	3	
12	0	0	0	0	507	3	
13	0	0	0	0	507	0	
14	0	0	0	0	507	3	
15	0	0	0	0	506	3	
0	0	0	0	0	506	3	
1	0	0	0	0	508	6	
2	0	0	0	0	506	3	
3	0	0	0	0	507	3	
4	0	0	0	0	508	3	
5	0	0	0	0	505	0	
6	0	0	0	0	504	3	
7	0	0	0	0	505	3	
8	0	0	0	0	508	3	
9	0	0	0	0	507	6	
10	0	0	0	0	506	3	
11	0	0	0	0	504	3	
12	0	0	0	0	506	3	
13	0	0	0	0	508	0	
14	0	0	0	0	505	3	
15	0	0	0	0	507	3	
0	0	0	0	0	508	3	
1	0	0	0	0	508	6	
2	0	0	0	0	506	3	
3	0	0	0	0	507	3	
4	0	0	0	0	506	3	
5	0	0	0	0	507	0	
6	0	0	0	0	505	3	
7	0	0	0	0	507	3	
8	0	0	0	0	506	3	
9	0	0	0	0	507	6	
10	0	0	0	0	508	3	
11	0	0	0	0	506	3	
12	0	0	0	0	506	3	
13	0	0	0	0	507	0	
14	0	0	0	0	508	3	
15	0	0	0	0	507	3	
0	0	0	0	0	506	3	
1	0	0	0	0	506	6	
2	0	0	0	0	506	3	
3	0	0	0	0	507	3	
4	0	0	0	0	507	3	
5	0	0	0	0	505	0	
6	0	0	0	0	507	3	
7	0	0	0	0	508	3	
8	0	0	0	0	506	3	
9	0	0	0	0	507	6	
10	0	0	0	0	507	3	
11	0	0	0	0	505	3	
12	0	0	0	0	507	3	
13	0	0	0	0	507	0	
14	0	0	0	0	505	3	
15	0	0	0	0	507	3	
0	0	0	0	0	507	3	
1	0	0	0	0	505	6	
2	0	0	0	0	508	3	
3	0	0	0	0	507	3	
4	0	0	0	0	506	3	
5	0	0	0	0	506	0	
6	0	0	0	0	508	3	
7	0	0	0	0	505	3	
8	0	0	0	0	507	3	
9	0	0	0	0	507	6	
10	0	0	0	0	505	3	
11	0	0	0	0	508	3	
12	0	0	0	0	507	3	
13	0	0	0	0	507	0	
14	0	0	0	0	508	3	
15	0	0	0	0	508	3	
0	0	0	0	0	508	3	
1	0	0	0	0	507	6	
2	0	0	0	0	507	3	
3	0	0	0	0	505	3	
4	0	0	0	0	506	3	
5	0	0	0	0	508	0	
6	0	0	0	0	507	3	
7	0	0	0	0	506	3	
8	0	0	0	0	508	3	
9	0	0	0	0	505	6	
10	0	0	0	0	508	3	
11	0	0	0	0	506	3	
12	0	0	0	0	505	3	
13	0	0	0	0	508	0	
14	0	0	0	0	506	3	
15	0	0	0	0	508	3	
0	0	0	0	0	505	3	
1	0	0	0	0	506	6	
2	0	0	0	0	508	3	
3	0	0	0	0	508	3	
4	0	0	0	0	508	3	
5	0	0	0	0	510	0	
6	0	0	0	0	509	3	
7	0	0	0	0	505	3	
8	0	0	0	0	507	3	
9	0	0	0	0	508	6	
10	0	0	0	0	507	3	
11	0	0	0	0	508	3	
12	0	0	0	0	506	3	
13	0	0	0	0	507	0	
14	0	0	0	0	506	3	
15	0	0	0	0	505	3	
0	0	0	0	0	508	3	
1	0	0	0	0	507	6	
2	0	0	0	0	505	3	
3	0	0	0	0	507	3	
4	0	0	0	0	508	3	
5	0	0	0	0	506	0	
6	0	0	0	0	507	3	
7	0	0	0	0	507	3	
8	0	0	0	0	507	3	
9	0	0	0	0	507	6	
10	0	0	0	0	506	3	
11	0	0	0	0	505	3	
12	0	0	0	0	505	2	
13	0	0	0	0	508	0	
14	0	0	0	0	506	3	
15	0	0	0	0	506	3	
0	0	0	0	0	505	3	
1	0	0	0	0	507	6	
2	0	0	0	0	507	3	
3	0	0	0	0	507	3	
4	0	0	0	0	508	3	
5	0	0	0	0	506	0	
6	0	0	0	0	505	3	
7	0	0	0	0	506	3	
8	0	0	0	0	505	3	
9	0	0	0	0	508	6	
10	0	0	0	0	508	3	
11	0	0	0	0	506	3	
12	0	0	0	0	505	3	
13	0	0	0	0	507	0	
14	0	0	0	0	506	3	
15	0	0	0	0	508	3	
0	0	0	0	0	510	3	
1	0	0	0	0	506	6	
2	0	0	0	0	507	3	
3	0	0	0	0	507	3	
4	0	0	0	0	507	3	
5	0	0	0	0	508	0	
6	0	0	0	0	507	3	
7	0	0	0	0	505	3	
8	0	0	0	0	506	3	
9	0	0	0	0	505	6	
10	0	0	0	0	508	3	
11	0	0	0	0	508	3	
12	0	0	0	0	505	3	
13	0	0	0	0	507	0	
14	0	0	0	0	508	3	
15	0	0	0	0	506	3	
0	0	0	0	0	508	3	
1	0	0	0	0	508	6	
2	0	0	0	0	506	3	
3	0	0	0	0	506	3	
4	0	0	0	0	508	3	
5	0	0	0	0	506	0	
6	0	0	0	0	505	3	
7	0	0	0	0	507	3	
8	0	0	0	0	505	3	
9	0	0	0	0	505	6	
10	0	0	0	0	506	3	
11	0	0	0	0	507	3	
12	0	0	0	0	508	3	
13	0	0	0	0	507	0	
14	0	0	0	0	508	3	
15	0	0	0	0	506	3	
0	0	0	0	0	505	3	
1	0	0	0	0	505	6	
2	0	0	0	0	506	3	
3	0	0	0	0	508	3	
4	0	0	0	0	508	3	
5	0	0	0	0	507	0	
6	0	0	0	0	508	3	
7	0	0	0	0	505	3	
8	0	0	0	0	506	3	
9	0	0	0	0	507	6	
10	0	0	0	0	508	3	
11	0	0	0	0	504	3	
12	0	0	0	0	506	3	
13	0	0	0	0	505	0	
14	0	0	0	0	506	3	
15	0	0	0	0	508	3	
0	0	0	0	0	507	3	
1	0	0	0	0	506	6	
2	0	0	0	0	508	3	
3	0	0	0	0	506	3	
4	0	0	0	0	508	3	
5	0	0	0	0	507	0	
6	0	0	0	0	507	3	
7	0	0	0	0	506	3	
8	0	0	0	0	508	3	
9	0	0	0	0	508	6	
10	0	0	0	0	506	3	
11	0	0	0	0	506	3	
12	0	0	0	0	508	3	
13	0	0	0	0	508	0	
14	0	0	0	0	505	3	
15	0	0	0	0	507	3	
0	0	0	0	0	507	3	
1	0	0	0	0	507	6	
2	0	0	0	0	508	3	
3	0	0	0	0	507	3	
4	0	0	0	0	508	3	
5	0	0	0	0	508	0	
6	0	0	0	0	506	3	
7	0	0	0	0	507	3	
8	0	0	0	0	507	3	
9	0	0	0	0	507	6	
10	0	0	0	0	506	3	
11	0	0	0	0	506	3	
12	0	0	0	0	506	3	
13	0	0	0	0	507	0	
14	0	0	0	0	504	3	
15	0	0	0	0	506	3	
0	0	0	0	0	508	3	
1	0	0	0	0	505	6	
2	0	0	0	0	509	3	
3	0	0	0	0	508	3	
4	0	0	0	0	509	3	
5	0	0	0	0	507	0	
6	0	0	0	0	508	3	
7	0	0	0	0	507	3	
8	0	0	0	0	507	3	
9	0	0	0	0	505	6	
10	0	0	0	0	506	3	
11	0	0	0	0	506	3	
12	0	0	0	0	507	3	
13	0	0	0	0	505	0	
14	0	0	0	0	508	3	
15	0	0	0	0	508	3	
0	0	0	0	0	505	3	
1	0	0	0	0	506	6	
2	0	0	0	0	509	3	
3	0	0	0	0	507	3	
4	0	0	0	0	508	3	
5	0	0	0	0	506	0	
6	0	0	0	0	504	3	
7	0	0	0	0	508	3	
8	0	0	0	0	508	3	
9	0	0	0	0	507	6	
10	0	0	0	0	508	3	
11	0	0	0	0	508	3	
12	0	0	0	0	507	3	
13	0	0	0	0	505	0	
14	0	0	0	0	507	3	
15	0	0	0	0	506	3	
0	0	0	0	0	507	3	
1	0	0	0	0	507	6	
2	0	0	0	0	506	3	
3	0	0	0	0	507	3	
4	0	0	0	0	504	3	
5	0	0	0	0	505	0	
6	0	0	0	0	504	3	
7	0	0	0	0	508	3	
8	0	0	0	0	506	3	
9	0	0	0	0	507	6	
10	0	0	0	0	507	3	
11	0	0	0	0	508	3	
12	0	0	0	0	506	3	
13	0	0	0	0	507	0	
14	0	0	0	0	506	3	
15	0	0	0	0	507	3	
0	0	0	0	0	508	3	
1	0	0	0	0	507	6	
2	0	0	0	0	506	3	
3	0	0	0	0	507	3	
4	0	0	0	0	506	3	
5	0	0	0	0	507	0	
6	0	0	0	0	507	3	
7	0	0	0	0	505	3	
8	0	0	0	0	507	3	
9	0	0	0	0	508	6	
10	0	0	0	0	508	3	
11	0	0	0	0	506	3	
12	0	0	0	0	507	3	
13	0	0	0	0	504	0	
14	0	0	0	0	507	3	
15	0	0	0	0	508	3	
0	0	0	0	0	507	3	
1	0	0	0	0	505	6	
2	0	0	0	0	506	3	
3	0	0	0	0	507	3	
4	0	0	0	0	508	3	
5	0	0	0	0	508	0	
6	0	0	0	0	507	3	
7	0	0	0	0	509	3	
8	0	0	0	0	504	3	
9	0	0	0	0	507	6	
10	0	0	0	0	507	3	
11	0	0	0	0	507	3	
12	0	0	0	0	505	3	
13	0	0	0	0	507	0	
14	0	0	0	0	506	3	
15	0	0	0	0	507	3	
0	0	0	0	0	507	3	
1	0	0	0	0	505	6	
2	0	0	0	0	508	3	
3	0	0	0	0	506	3	
4	0	0	0	0	507	3	
5	0	0	0	0	506	0	
6	0	0	0	0	506	3	
7	0	0	0	0	508	3	
8	0	0	0	0	506	3	
9	0	0	0	0	506	6	
10	0	0	0	0	509	3	
11	0	0	0	0	507	3	
12	0	0	0	0	504	3	
13	0	0	0	0	505	0	
14	0	0	0	0	507	3	
15	0	0	0	0	506	3	
0	0	0	0	0	508	3	
1	0	0	0	0	506	6	
2	0	0	0	0	507	3	
3	0	0	0	0	507	3	
4	0	0	0	0	508	3	
5	0	0	0	0	509	0	
6	0	0	0	0	507	3	
7	0	0	0	0	507	3	
8	0	0	0	0	507	3	
9	0	0	0	0	507	6	
10	0	0	0	0	508	3	
11	0	0	0	0	508	3	
12	0	0	0	0	505	2	
13	0	0	0	0	504	0	
14	0	0	0	0	507	3	
15	0	0	0	0	507	3	
0	0	0	0	0	508	3	
1	0	0	0	0	507	6	
2	0	0	0	0	505	3	
3	0	0	0	0	507	3	
4	0	0	0	0	504	2	
5	0	0	0	0	504	0	
6	0	0	0	0	508	3	
7	0	0	0	0	508	3	
8	0	0	0	0	508	3	
9	0	0	0	0	506	6	
10	0	0	0	0	506	3	
11	0	0	0	0	505	3	
12	0	0	0	0	504	3	
13	0	0	0	0	505	0	
14	0	0	0	0	508	3	
15	0	0	0	0	505	3	
0	0	0	0	0	508	3	
1	0	0	0	0	506	6	
2	0	0	0	0	508	3	
3	0	0	0	0	508	3	
4	0	0	0	0	505	3	
5	0	0	0	0	508	0	
6	0	0	0	0	508	3	
7	0	0	0	0	505	3	
8	0	0	0	0	507	3	
9	0	0	0	0	506	6	
10	0	0	0	0	507	3	
11	0	0	0	0	510	3	
12	0	0	0	0	508	3	
13	0	0	0	0	507	0	
14	0	0	0	0	508	3	
15	0	0	0	0	507	3	
0	0	0	0	0	504	3	
1	0	0	0	0	505	6	
2	0	0	0	0	505	3	
3	0	0	0	0	504	3	
4	0	0	0	0	507	2	
5	0	0	0	0	508	0	
6	0	0	0	0	507	3	
7	0	0	0	0	507	3	
8	0	0	0	0	507	3	
9	0	0	0	0	507	6	
10	0	0	0	0	508	3	
11	0	0	0	0	506	3	
12	0	0	0	0	508	3	
13	0	0	0	0	508	0	
14	0	0	0	0	507	3	
15	0	0	0	0	505	3	
0	0	0	0	0	507	3	
1	0	0	0	0	508	6	
2	0	0	0	0	505	3	
3	0	0	0	0	506	3	
4	0	0	0	0	507	3	
5	0	0	0	0	506	0	
6	0	0	0	0	508	3	
7	0	0	0	0	508	3	
8	0	0	0	0	506	3	
9	0	0	0	0	506	6	
10	0	0	0	0	506	3	
11	0	0	0	0	507	3	
12	0	0	0	0	508	3	
13	0	0	0	0	507	0	
14	0	0	0	0	507	3	
15	0	0	0	0	506	3	
0	0	0	0	0	507	3	
1	0	0	0	0	507	6	
2	0	0	0	0	505	3	
3	0	0	0	0	506	3	
4	0	0	0	0	506	2	
5	0	0	0	0	508	0	
6	0	0	0	0	507	3	
7	0	0	0	0	505	3	
8	0	0	0	0	505	3	
9	0	0	0	0	508	6	
10	0	0	0	0	509	3	
11	0	0	0	0	508	3	
12	0	0	0	0	508	3	
13	0	0	0	0	507	0	
14	0	0	0	0	509	3	
15	0	0	0	0	508	3	
0	0	0	0	0	506	3	
1	0	0	0	0	506	6	
2	0	0	0	0	505	3	
3	0	0	0	0	505	3	
4	0	0	0	0	506	3	
5	0	0	0	0	507	0	
6	0	0	0	0	507	3	
7	0	0	0	0	504	3	
8	0	0	0	0	504	3	
9	0	0	0	0	506	6	
10	0	0	0	0	507	3	
11	0	0	0	0	506	3	
12	0	0	0	0	506	3	
13	0	0	0	0	507	0	
14	0	0	0	0	508	3	
15	0	0	0	0	509	3	
0	0	0	0	0	509	3	
1	0	0	0	0	506	6	
2	0	0	0	0	507	3	
3	0	0	0	0	508	3	
4	0	0	0	0	506	3	
5	0	0	0	0	505	0	
6	0	0	0	0	504	3	
7	0	0	0	0	507	3	
8	0	0	0	0	506	3	
9	0	0	0	0	508	6	
10	0	0	0	0	505	3	
11	0	0	0	0	509	3	
12	0	0	0	0	506	3	
13	0	0	0	0	507	0	
14	0	0	0	0	508	3	
15	0	0	0	0	504	3	
0	0	0	0	0	507	3	
1	0	0	0	0	506	6	
2	0	0	0	0	506	3	
3	0	0	0	0	507	3	
4	0	0	0	0	507	3	
5	0	0	0	0	507	0	
6	0	0	0	0	507	3	
7	0	0	0	0	505	3	
8	0	0	0	0	507	3	
9	0	0	0	0	508	6	
10	0	0	0	0	506	3	
11	0	0	0	0	508	3	
12	0	0	0	0	508	3	
13	0	0	0	0	507	0	
14	0	0	0	0	506	3	
15	0	0	0	0	508	3	
0	0	0	0	0	507	3	
1	0	0	0	0	505	6	
2	0	0	0	0	506	3	
3	0	0	0	0	507	3	
4	0	0	0	0	507	3	
5	0	0	0	0	506	0	
6	0	0	0	0	508	3	
7	0	0	0	0	505	3	
8	0	0	0	0	508	3	
9	0	0	0	0	504	6	
10	0	0	0	0	505	3	
11	0	0	0	0	505	3	
12	0	0	0	0	506	3	
13	0	0	0	0	510	0	
14	0	0	0	0	508	3	
15	0	0	0	0	508	3	
0	0	0	0	0	510	3	
1	0	0	0	0	508	6	
2	0	0	0	0	506	3	
3	0	0	0	0	506	3	
4	0	0	0	0	505	3	
5	0	0	0	0	507	0	
6	0	0	0	0	507	3	
7	0	0	0	0	505	3	
8	0	0	0	0	508	3	
9	0	0	0	0	508	6	
10	0	0	0	0	508	3	
11	0	0	0	0	507	3	
12	0	0	0	0	505	3	
13	0	0	0	0	505	0	
14	0	0	0	0	508	3	
15	0	0	0	0	508	3	
0	0	0	0	0	507	3	
1	0	0	0	0	508	6	
2	0	0	0	0	507	3	
3	0	0	0	0	505	3	
4	0	0	0	0	507	3	
5	0	0	0	0	507	0	
6	0	0	0	0	508	3	
7	0	0	0	0	506	3	
8	0	0	0	0	510	3	
9	0	0	0	0	505	6	
10	0	0	0	0	504	3	
11	0	0	0	0	505	3	
12	0	0	0	0	505	3	
13	0	0	0	0	508	0	
14	0	0	0	0	507	3	
15	0	0	0	0	506	3	
0	0	0	0	0	505	3	
1	0	0	0	0	506	6	
2	0	0	0	0	507	3	
3	0	0	0	0	507	3	
4	0	0	0	0	505	3	
5	0	0	0	0	508	0	
6	0	0	0	0	508	3	
7	0	0	0	0	508	3	
8	0	0	0	0	503	3	
9	0	0	0	0	507	6	
10	0	0	0	0	505	3	
11	0	0	0	0	508	3	
12	0	0	0	0	507	3	
13	0	0	0	0	507	0	
14	0	0	0	0	508	3	
15	0	0	0	0	505	3	
0	0	0	0	0	506	3	
1	0	0	0	0	506	6	
2	0	0	0	0	508	3	
3	0	0	0	0	508	3	
4	0	0	0	0	509	3	
5	0	0	0	0	509	0	
6	0	0	0	0	505	3	
7	0	0	0	0	504	3	
8	0	0	0	0	507	3	
9	0	0	0	0	508	6	
10	0	0	0	0	505	3	
11	0	0	0	0	507	3	
12	0	0	0	0	505	3	
13	0	0	0	0	507	0	
14	0	0	0	0	507	3	
15	0	0	0	0	507	3	
0	0	0	0	0	508	3	
1	0	0	0	0	505	6	
2	0	0	0	0	507	3	
3	0	0	0	0	508	3	
4	0	0	0	0	508	3	
5	0	0	0	0	506	0	
6	0	0	0	0	506	3	
7	0	0	0	0	509	3	
8	0	0	0	0	505	3	
9	0	0	0	0	505	6	
10	0	0	0	0	506	3	
11	0	0	0	0	505	3	
12	0	0	0	0	507	3	
13	0	0	0	0	508	0	
14	0	0	0	0	506	3	
15	0	0	0	0	505	3	
0	0	0	0	0	508	3	
1	0	0	0	0	508	6	
2	0	0	0	0	506	3	
3	0	0	0	0	507	3	
4	0	0	0	0	507	3	
5	0	0	0	0	504	0	
6	0	0	0	0	508	3	
7	0	0	0	0	509	3	
8	0	0	0	0	508	3	
9	0	0	0	0	508	6	
10	0	0	0	0	508	3	
11	0	0	0	0	505	3	
12	0	0	0	0	505	3	
13	0	0	0	0	508	0	
14	0	0	0	0	508	3	
15	0	0	0	0	507	3	
0	0	0	0	0	504	3	
1	0	0	0	0	509	6	
2	0	0	0	0	506	3	
3	0	0	0	0	507	3	
4	0	0	0	0	507	3	
5	0	0	0	0	507	0	
6	0	0	0	0	507	3	
7	0	0	0	0	507	3	
8	0	0	0	0	507	3	
9	0	0	0	0	507	6	
10	0	0	0	0	508	3	
11	0	0	0	0	508	3	
12	0	0	0	0	505	3	
13	0	0	0	0	505	0	
14	0	0	0	0	504	3	
15	0	0	0	0	508	3	
0	0	0	0	0	507	3	
1	0	0	0	0	507	6	
2	0	0	0	0	507	3	
3	0	0	0	0	509	3	
4	0	0	0	0	507	3	
5	0	0	0	0	507	0	
6	0	0	0	0	507	3	
7	0	0	0	0	506	3	
8	0	0	0	0	506	3	
9	0	0	0	0	506	6	
10	0	0	0	0	507	3	
11	0	0	0	0	505	3	
12	0	0	0	0	504	3	
13	0	0	0	0	509	0	
14	0	0	0	0	508	3	
15	0	0	0	0	507	3	
0	0	0	0	0	507	3	
1	0	0	0	0	506	6	
2	0	0	0	0	507	3	
3	0	0	0	0	505	3	
4	0	0	0	0	506	3	
5	0	0	0	0	508	0	
6	0	0	0	0	506	3	
7	0	0	0	0	505	3	
8	0	0	0	0	507	3	
9	0	0	0	0	506	6	
10	0	0	0	0	506	3	
11	0	0	0	0	507	3	
12	0	0	0	0	507	3	
13	0	0	0	0	507	0	
14	0	0	0	0	507	3	
15	0	0	0	0	507	3	
0	0	0	0	0	507	3	
1	0	0	0	0	508	6	
2	0	0	0	0	506	3	
3	0	0	0	0	507	3	
4	0	0	0	0	506	3	
5	0	0	0	0	506	0	
6	0	0	0	0	508	3	
7	0	0	0	0	506	3	
8	0	0	0	0	506	3	
9	0	0	0	0	507	6	
10	0	0	0	0	508	3	
11	0	0	0	0	505	3	
12	0	0	0	0	508	3	
13	0	0	0	0	508	0	
14	0	0	0	0	506	3	
15	0	0	0	0	507	3	
0	0	0	0	0	508	3	
1	0	0	0	0	505	6	
2	0	0	0	0	507	3	
3	0	0	0	0	507	3	
4	0	0	0	0	508	3	
5	0	0	0	0	507	0	
6	0	0	0	0	506	3	
7	0	0	0	0	507	3	
8	0	0	0	0	506	3	
9	0	0	0	0	506	6	
10	0	0	0	0	507	3	
11	0	0	0	0	510	3	
12	0	0	0	0	507	3	
13	0	0	0	0	505	0	
14	0	0	0	0	506	3	
15	0	0	0	0	507	3	
0	0	0	0	0	506	3	
1	0	0	0	0	504	6	
2	0	0	0	0	504	3	
3	0	0	0	0	507	3	
4	0	0	0	0	507	3	
5	0	0	0	0	507	0	
6	0	0	0	0	508	3	
7	0	0	0	0	508	3	
8	0	0	0	0	507	3	
9	0	0	0	0	509	6	
10	0	0	0	0	506	3	
11	0	0	0	0	507	3	
12	0	0	0	0	508	3	
13	0	0	0	0	508	0	
14	0	0	0	0	508	3	
15	0	0	0	0	507	3	
0	0	0	0	0	505	3	
1	0	0	0	0	506	6	
2	0	0	0	0	504	3	
3	0	0	0	0	508	3	
4	0	0	0	0	506	3	
5	0	0	0	0	509	0	
6	0	0	0	0	506	3	
7	0	0	0	0	506	3	
8	0	0	0	0	505	3	
9	0	0	0	0	508	6	
10	0	0	0	0	507	3	
11	0	0	0	0	507	3	
12	0	0	0	0	509	3	
13	0	0	0	0	507	0	
14	0	0	0	0	506	3	
15	0	0	0	0	507	3	
0	0	0	0	0	504	3	
1	0	0	0	0	507	6	
2	0	0	0	0	508	3	
3	0	0	0	0	507	3	
4	0	0	0	0	506	3	
5	0	0	0	0	505	0	
6	0	0	0	0	506	3	
7	0	0	0	0	507	3	
8	0	0	0	0	506	3	
9	0	0	0	0	508	6	
10	0	0	0	0	505	3	
11	0	0	0	0	508	3	
12	0	0	0	0	507	3	
13	0	0	0	0	508	0	
14	0	0	0	0	507	3	
15	0	0	0	0	507	3	
0	0	0	0	0	509	3	
1	0	0	0	0	508	6	
2	0	0	0	0	507	3	
3	0	0	0	0	506	3	
4	0	0	0	0	505	3	
5	0	0	0	0	507	0	
6	0	0	0	0	508	3	
7	0	0	0	0	506	3	
8	0	0	0	0	507	3	
9	0	0	0	0	505	6	
10	0	0	0	0	509	3	
11	0	0	0	0	508	3	
12	0	0	0	0	508	3	
13	0	0	0	0	505	0	
14	0	0	0	0	508	3	
15	0	0	0	0	507	3	
0	0	0	0	0	508	3	
1	0	0	0	0	506	6	
2	0	0	0	0	506	3	
3	0	0	0	0	505	3	
4	0	0	0	0	504	3	
5	0	0	0	0	507	0	
6	0	0	0	0	509	3	
7	0	0	0	0	508	3	
8	0	0	0	0	508	3	
9	0	0	0	0	507	6	
10	0	0	0	0	506	3	
11	0	0	0	0	505	3	
12	0	0	0	0	508	2	
13	0	0	0	0	507	0	
14	0	0	0	0	506	3	
15	0	0	0	0	505	3	
0	0	0	0	0	507	3	
1	0	0	0	0	507	6	
2	0	0	0	0	505	3	
3	0	0	0	0	507	3	
4	0	0	0	0	505	3	
5	0	0	0	0	506	0	
6	0	0	0	0	506	3	
7	0	0	0	0	507	3	
8	0	0	0	0	507	3	
9	0	0	0	0	509	6	
10	0	0	0	0	509	3	
11	0	0	0	0	509	3	
12	0	0	0	0	508	3	
13	0	0	0	0	508	0	
14	0	0	0	0	507	3	
15	0	0	0	0	508	3	
0	0	0	0	0	506	3	
1	0	0	0	0	507	6	
2	0	0	0	0	506	3	
3	0	0	0	0	505	3	
4	0	0	0	0	506	3	
5	0	0	0	0	509	0	
6	0	0	0	0	508	3	
7	0	0	0	0	508	3	
8	0	0	0	0	507	3	
9	0	0	0	0	508	6	
10	0	0	0	0	507	3	
11	0	0	0	0	505	3	
12	0	0	0	0	506	2	
13	0	0	0	0	505	0	
14	0	0	0	0	505	3	
15	0	0	0	0	505	3	
0	0	0	0	0	507	3	
1	0	0	0	0	508	6	
2	0	0	0	0	504	3	
3	0	0	0	0	505	3	
4	0	0	0	0	507	2	
5	0	0	0	0	507	0	
6	0	0	0	0	505	3	
7	0	0	0	0	504	3	
8	0	0	0	0	507	3	
9	0	0	0	0	508	6	
10	0	0	0	0	506	3	
11	0	0	0	0	508	3	
12	0	0	0	0	508	3	
13	0	0	0	0	509	0	
14	0	0	0	0	509	3	
15	0	0	0	0	507	3	
0	0	0	0	0	505	3	
1	0	0	0	0	506	6	
2	0	0	0	0	507	3	
3	0	0	0	0	505	3	
4	0	0	0	0	507	3	
5	0	0	0	0	507	0	
6	0	0	0	0	507	3	
7	0	0	0	0	506	3	
8	0	0	0	0	506	3	
9	0	0	0	0	506	6	
10	0	0	0	0	506	3	
11	0	0	0	0	506	3	
12	0	0	0	0	505	3	
13	0	0	0	0	508	0	
14	0	0	0	0	508	3	
15	0	0	0	0	507	3	
0	0	0	0	0	506	3	
1	0	0	0	0	507	6	
2	0	0	0	0	507	3	
3	0	0	0	0	505	3	
4	0	0	0	0	505	2	
5	0	0	0	0	507	0	
6	0	0	0	0	506	3	
7	0	0	0	0	505	3	
8	0	0	0	0	507	3	
9	0	0	0	0	509	6	
10	0	0	0	0	508	3	
11	0	0	0	0	509	3	
12	0	0	0	0	508	3	
13	0	0	0	0	506	0	
14	0	0	0	0	506	3	
15	0	0	0	0	505	3	
0	0	0	0	0	508	3	
1	0	0	0	0	506	6	
2	0	0	0	0	505	3	
3	0	0	0	0	505	3	
4	0	0	0	0	505	3	
5	0	0	0	0	508	0	
6	0	0	0	0	510	3	
7	0	0	0	0	508	3	
8	0	0	0	0	507	3	
9	0	0	0	0	507	6	
10	0	0	0	0	505	3	
11	0	0	0	0	505	3	
12	0	0	0	0	504	3	
13	0	0	0	0	505	0	
14	0	0	0	0	505	3	
15	0	0	0	0	507	3	
0	0	0	0	0	507	3	
1	0	0	0	0	506	6	
2	0	0	0	0	510	3	
3	0	0	0	0	508	3	
4	0	0	0	0	507	3	
5	0	0	0	0	507	0	
6	0	0	0	0	506	3	
7	0	0	0	0	508	3	
8	0	0	0	0	508	3	
9	0	0	0	0	508	6	
10	0	0	0	0	507	3	
11	0	0	0	0	505	3	
12	0	0	0	0	506	3	
13	0	0	0	0	506	0	
14	0	0	0	0	507	3	
15	0	0	0	0	509	3	
0	0	0	0	0	505	3	
1	0	0	0	0	505	6	
2	0	0	0	0	505	3	
3	0	0	0	0	507	3	
4	0	0	0	0	507	3	
5	0	0	0	0	505	0	
6	0	0	0	0	508	3	
7	0	0	0	0	508	3	
8	0	0	0	0	508	3	
9	0	0	0	0	509	6	
10	0	0	0	0	505	3	
11	0	0	0	0	508	3	
12	0	0	0	0	507	3	
13	0	0	0	0	506	0	
14	0	0	0	0	506	3	
15	0	0	0	0	507	3	
0	0	0	0	0	508	3	
1	0	0	0	0	508	6	
2	0	0	0	0	506	3	
3	0	0	0	0	506	3	
4	0	0	0	0	506	3	
5	0	0	0	0	507	0	
6	0	0	0	0	508	3	
7	0	0	0	0	507	3	
8	0	0	0	0	507	3	
9	0	0	0	0	507	6	
10	0	0	0	0	507	3	
11	0	0	0	0	507	3	
12	0	0	0	0	507	3	
13	0	0	0	0	507	0	
14	0	0	0	0	505	3	
15	0	0	0	0	507	3	
0	0	0	0	0	510	3	
1	0	0	0	0	507	6	
2	0	0	0	0	508	3	
3	0	0	0	0	504	3	
4	0	0	0	0	507	2	
5	0	0	0	0	508	0	
6	0	0	0	0	506	3	
7	0	0	0	0	508	3	
8	0	0	0	0	505	3	
9	0	0	0	0	506	6	
10	0	0	0	0	508	3	
11	0	0	0	0	508	3	
12	0	0	0	0	507	3	
13	0	0	0	0	506	0	
14	0	0	0	0	510	3	
15	0	0	0	0	505	3	
0	0	0	0	0	506	3	
1	0	0	0	0	507	6	
2	0	0	0	0	507	3	
3	0	0	0	0	508	3	
4	0	0	0	0	505	3	
5	0	0	0	0	506	0	
6	0	0	0	0	507	3	
7	0	0	0	0	506	3	
8	0	0	0	0	506	3	
9	0	0	0	0	508	6	
10	0	0	0	0	505	3	
11	0	0	0	0	508	3	
12	0	0	0	0	508	3	
13	0	0	0	0	507	0	
14	0	0	0	0	507	3	
15	0	0	0	0	506	3	
0	0	0	0	0	506	3	
1	0	0	0	0	506	6	
2	0	0	0	0	507	3	
3	0	0	0	0	506	3	
4	0	0	0	0	506	3	
5	0	0	0	0	507	0	
6	0	0	0	0	506	3	
7	0	0	0	0	509	3	
8	0	0	0	0	506	3	
9	0	0	0	0	508	6	
10	0	0	0	0	505	3	
11	0	0	0	0	507	3	
12	0	0	0	0	507	3	
13	0	0	0	0	505	0	
14	0	0	0	0	507	3	
15	0	0	0	0	506	3	
0	0	0	0	0	508	3	
1	0	0	0	0	507	6	
2	0	0	0	0	508	3	
3	0	0	0	0	507	3	
4	0	0	0	0	509	3	
5	0	0	0	0	507	0	
6	0	0	0	0	506	3	
7	0	0	0	0	505	3	
8	0	0	0	0	504	3	
9	0	0	0	0	504	6	
10	0	0	0	0	507	3	
11	0	0	0	0	508	3	
12	0	0	0	0	508	3	
13	0	0	0	0	506	0	
14	0	0	0	0	507	3	
15	0	0	0	0	506	3	
0	0	0	0	0	505	3	
1	0	0	0	0	507	6	
2	0	0	0	0	507	3	
3	0	0	0	0	508	3	
4	0	0	0	0	507	3	
5	0	0	0	0	504	0	
6	0	0	0	0	507	3	
7	0	0	0	0	507	3	
8	0	0	0	0	508	3	
9	0	0	0	0	508	6	
10	0	0	0	0	506	3	
11	0	0	0	0	507	3	
12	0	0	0	0	507	3	
13	0	0	0	0	505	0	
14	0	0	0	0	506	3	
15	0	0	0	0	504	3	
0	0	0	0	0	507	3	
1	0	0	0	0	508	6	
2	0	0	0	0	507	3	
3	0	0	0	0	506	3	
4	0	0	0	0	507	2	
5	0	0	0	0	506	0	
6	0	0	0	0	507	3	
7	0	0	0	0	507	3	
8	0	0	0	0	507	3	
9	0	0	0	0	508	6	
10	0	0	0	0	507	3	
11	0	0	0	0	505	3	
12	0	0	0	0	507	3	
13	0	0	0	0	506	0	
14	0	0	0	0	508	3	
15	0	0	0	0	506	3	
0	0	0	0	0	507	3	
1	0	0	0	0	507	6	
2	0	0	0	0	506	3	
3	0	0	0	0	507	3	
4	0	0	0	0	506	3	
5	0	0	0	0	508	0	
6	0	0	0	0	507	3	
7	0	0	0	0	506	3	
8	0	0	0	0	505	3	
9	0	0	0	0	507	6	
10	0	0	0	0	507	3	
11	0	0	0	0	508	3	
12	0	0	0	0	504	3	
13	0	0	0	0	507	0	
14	0	0	0	0	505	3	
15	0	0	0	0	508	3	
0	0	0	0	0	507	3	
1	0	0	0	0	507	6	
2	0	0	0	0	506	3	
3	0	0	0	0	508	3	
4	0	0	0	0	507	2	
5	0	0	0	0	507	0	
6	0	0	0	0	508	3	
7	0	0	0	0	507	3	
8	0	0	0	0	507	3	
9	0	0	0	0	506	6	
10	0	0	0	0	506	3	
11	0	0	0	0	506	3	
12	0	0	0	0	508	3	
13	0	0	0	0	508	0	
14	0	0	0	0	505	3	
15	0	0	0	0	507	3	
0	0	0	0	0	509	3	
1	0	0	0	0	507	6	
2	0	0	0	0	506	3	
3	0	0	0	0	507	3	
4	0	0	0	0	506	2	
5	0	0	0	0	505	0	
6	0	0	0	0	507	3	
7	0	0	0	0	507	3	
8	0	0	0	0	508	3	
9	0	0	0	0	507	6	
10	0	0	0	0	508	3	
11	0	0	0	0	504	3	
12	0	0	0	0	506	3	
13	0	0	0	0	505	0	
14	0	0	0	0	507	3	
15	0	0	0	0	507	3	
0	0	0	0	0	507	3	
1	0	0	0	0	507	6	
2	0	0	0	0	508	3	
3	0	0	0	0	508	3	
4	0	0	0	0	505	3	
5	0	0	0	0	507	0	
6	0	0	0	0	507	3	
7	0	0	0	0	507	3	
8	0	0	0	0	506	3	
9	0	0	0	0	505	6	
10	0	0	0	0	505	3	
11	0	0	0	0	504	3	
12	0	0	0	0	507	3	
13	0	0	0	0	508	0	
14	0	0	0	0	507	3	
15	0	0	0	0	504	3	
0	0	0	0	0	503	3	
1	0	0	0	0	505	6	
2	0	0	0	0	507	3	
3	0	0	0	0	507	3	
4	0	0	0	0	508	3	
5	0	0	0	0	509	0	
6	0	0	0	0	505	3	
7	0	0	0	0	508	3	
8	0	0	0	0	507	3	
9	0	0	0	0	506	6	
10	0	0	0	0	507	3	
11	0	0	0	0	508	3	
12	0	0	0	0	506	2	
13	0	0	0	0	505	0	
14	0	0	0	0	506	3	
15	0	0	0	0	507	3	
0	0	0	0	0	507	3	
1	0	0	0	0	508	6	
2	0	0	0	0	508	3	
3	0	0	0	0	508	3	
4	0	0	0	0	508	3	
5	0	0	0	0	507	0	
6	0	0	0	0	507	3	
7	0	0	0	0	505	3	
8	0	0	0	0	507	3	
9	0	0	0	0	509	6	
10	0	0	0	0	507	3	
11	0	0	0	0	507	3	
12	0	0	0	0	507	3	
13	0	0	0	0	506	0	
14	0	0	0	0	504	3	
15	0	0	0	0	507	3	
0	0	0	0	0	507	3	
1	0	0	0	0	506	6	
2	0	0	0	0	508	3	
3	0	0	0	0	505	3	
4	0	0	0	0	505	3	
5	0	0	0	0	505	0	
6	0	0	0	0	504	3	
7	0	0	0	0	505	3	
8	0	0	0	0	506	3	
9	0	0	0	0	508	6	
10	0	0	0	0	505	3	
11	0	0	0	0	508	3	
12	0	0	0	0	507	3	
13	0	0	0	0	507	0	
14	0	0	0	0	508	3	
15	0	0	0	0	508	3	
0	0	0	0	0	505	3	
1	0	0	0	0	507	6	
2	0	0	0	0	507	3	
3	0	0	0	0	508	3	
4	0	0	0	0	507	2	
5	0	0	0	0	506	0	
6	0	0	0	0	505	3	
7	0	0	0	0	506	3	
8	0	0	0	0	507	3	
9	0	0	0	0	506	6	
10	0	0	0	0	506	3	
11	0	0	0	0	507	3	
12	0	0	0	0	507	3	
13	0	0	0	0	507	0	
14	0	0	0	0	507	3	
15	0	0	0	0	507	3	
0	0	0	0	0	507	3	
1	0	0	0	0	506	6	
2	0	0	0	0	507	3	
3	0	0	0	0	508	3	
4	0	0	0	0	504	3	
5	0	0	0	0	505	0	
6	0	0	0	0	507	3	
7	0	0	0	0	508	3	
8	0	0	0	0	509	3	
9	0	0	0	0	507	6	
10	0	0	0	0	507	3	
11	0	0	0	0	507	3	
12	0	0	0	0	506	3	
13	0	0	0	0	507	0	
14	0	0	0	0	505	3	
15	0	0	0	0	505	3	
0	0	0	0	0	504	3	
1	0	0	0	0	507	6	
2	0	0	0	0	505	3	
3	0	0	0	0	506	3	
4	0	0	0	0	507	3	
5	0	0	0	0	508	0	
6	0	0	0	0	507	3	
7	0	0	0	0	507	3	
8	0	0	0	0	507	3	
9	0	0	0	0	507	6	
10	0	0	0	0	508	3	
11	0	0	0	0	508	3	
12	0	0	0	0	507	3	
13	0	0	0	0	507	0	
14	0	0	0	0	505	3	
15	0	0	0	0	507	3	
0	0	0	0	0	507	3	
1	0	0	0	0	507	6	
2	0	0	0	0	507	3	
3	0	0	0	0	508	3	
4	0	0	0	0	508	3	
5	0	0	0	0	508	0	
6	0	0	0	0	509	3	
7	0	0	0	0	506	3	
8	0	0	0	0	506	3	
9	0	0	0	0	505	6	
10	0	0	0	0	509	3	
11	0	0	0	0	508	3	
12	0	0	0	0	506	3	
13	0	0	0	0	507	0	
14	0	0	0	0	506	3	
15	0	0	0	0	506	3	
0	0	0	0	0	508	3	
1	0	0	0	0	505	6	
2	0	0	0	0	507	3	
3	0	0	0	0	506	3	
4	0	0	0	0	506	3	
5	0	0	0	0	507	0	
6	0	0	0	0	504	3	
7	0	0	0	0	504	3	
8	0	0	0	0	507	3	
9	0	0	0	0	507	6	
10	0	0	0	0	507	3	
11	0	0	0	0	507	3	
12	0	0	0	0	507	3	
13	0	0	0	0	506	0	
14	0	0	0	0	507	3	
15	0	0	0	0	507	3	
0	0	0	0	0	506	3	
1	0	0	0	0	505	6	
2	0	0	0	0	504	3	
3	0	0	0	0	504	3	
4	0	0	0	0	508	3	
5	0	0	0	0	505	0	
6	0	0	0	0	506	3	
7	0	0	0	0	508	3	
8	0	0	0	0	508	3	
9	0	0	0	0	508	6	
10	0	0	0	0	508	3	
11	0	0	0	0	507	3	
12	0	0	0	0	506	3	
13	0	0	0	0	507	0	
14	0	0	0	0	508	3	
15	0	0	0	0	508	3	
0	0	0	0	0	505	3	
1	0	0	0	0	507	6	
2	0	0	0	0	506	3	
3	0	0	0	0	505	3	
4	0	0	0	0	506	3	
5	0	0	0	0	506	0	
6	0	0	0	0	507	3	
7	0	0	0	0	506	3	
8	0	0	0	0	509	3	
9	0	0	0	0	505	6	
10	0	0	0	0	506	3	
11	0	0	0	0	505	3	
12	0	0	0	0	506	3	
13	0	0	0	0	507	0	
14	0	0	0	0	508	3	
15	0	0	0	0	506	3	
0	0	0	0	0	506	3	
1	0	0	0	0	507	6	
2	0	0	0	0	507	3	
3	0	0	0	0	508	3	
4	0	0	0	0	506	2	
5	0	0	0	0	507	0	
6	0	0	0	0	507	3	
7	0	0	0	0	508	3	
8	0	0	0	0	505	3	
9	0	0	0	0	510	6	
10	0	0	0	0	508	3	
11	0	0	0	0	507	3	
12	0	0	0	0	505	3	
13	0	0	0	0	504	0	
14	0	0	0	0	505	3	
15	0	0	0	0	505	3	
0	0	0	0	0	507	3	
1	0	0	0	0	510	6	
2	0	0	0	0	506	3	
3	0	0	0	0	507	3	
4	0	0	0	0	505	3	
5	0	0	0	0	508	0	
6	0	0	0	0	508	3	
7	0	0	0	0	507	3	
8	0	0	0	0	508	3	
9	0	0	0	0	507	6	
10	0	0	0	0	507	3	
11	0	0	0	0	508	3	
12	0	0	0	0	507	3	
13	0	0	0	0	505	0	
14	0	0	0	0	505	3	
15	0	0	0	0	506	3	
0	0	0	0	0	506	3	
1	0	0	0	0	508	6	
2	0	0	0	0	509	3	
3	0	0	0	0	505	3	
4	0	0	0	0	505	3	
5	0	0	0	0	507	0	
6	0	0	0	0	508	3	
7	0	0	0	0	507	3	
8	0	0	0	0	507	3	
9	0	0	0	0	507	6	
10	0	0	0	0	506	3	
11	0	0	0	0	505	3	
12	0	0	0	0	506	2	
13	0	0	0	0	505	0	
14	0	0	0	0	509	3	
15	0	0	0	0	505	3	
0	0	0	0	0	505	3	
1	0	0	0	0	507	6	
2	0	0	0	0	508	3	
3	0	0	0	0	507	3	
4	0	0	0	0	508	3	
5	0	0	0	0	506	0	
6	0	0	0	0	509	3	
7	0	0	0	0	505	3	
8	0	0	0	0	506	3	
9	0	0	0	0	507	6	
10	0	0	0	0	508	3	
11	0	0	0	0	506	3	
12	0	0	0	0	506	3	
13	0	0	0	0	508	0	
14	0	0	0	0	508	3	
15	0	0	0	0	506	3	
0	0	0	0	0	505	3	
1	0	0	0	0	507	6	
2	0	0	0	0	505	3	
3	0	0	0	0	507	3	
4	0	0	0	0	506	3	
5	0	0	0	0	506	0	
6	0	0	0	0	504	3	
7	0	0	0	0	506	3	
8	0	0	0	0	507	3	
9	0	0	0	0	507	6	
10	0	0	0	0	508	3	
11	0	0	0	0	505	3	
12	0	0	0	0	506	3	
13	0	0	0	0	507	0	
14	0	0	0	0	508	3	
15	0	0	0	0	505	3	
0	0	0	0	0	505	3	
1	0	0	0	0	505	6	
2	0	0	0	0	505	3	
3	0	0	0	0	506	3	
4	0	0	0	0	506	3	
5	0	0	0	0	507	0	
6	0	0	0	0	507	3	
7	0	0	0	0	507	3	
8	0	0	0	0	508	3	
9	0	0	0	0	508	6	
10	0	0	0	0	505	3	
11	0	0	0	0	504	3	
12	0	0	0	0	507	3	
13	0	0	0	0	508	0	
14	0	0	0	0	506	3	
15	0	0	0	0	508	3	
0	0	0	0	0	508	3	
1	0	0	0	0	507	6	
2	0	0	0	0	507	3	
3	0	0	0	0	504	3	
4	0	0	0	0	506	3	
5	0	0	0	0	507	0	
6	0	0	0	0	506	3	
7	0	0	0	0	505	3	
8	0	0	0	0	507	3	
9	0	0	0	0	507	6	
10	0	0	0	0	506	3	
11	0	0	0	0	507	3	
12	0	0	0	0	508	3	
13	0	0	0	0	508	0	
14	0	0	0	0	509	3	
15	0	0	0	0	508	3	
0	0	0	0	0	508	3	
1	0	0	0	0	507	6	
2	0	0	0	0	506	3	
3	0	0	0	0	507	3	
4	0	0	0	0	508	3	
5	0	0	0	0	508	0	
6	0	0	0	0	506	3	
7	0	0	0	0	507	3	
8	0	0	0	0	507	3	
9	0	0	0	0	510	6	
10	0	0	0	0	505	3	
11	0	0	0	0	506	3	
12	0	0	0	0	507	3	
13	0	0	0	0	507	0	
14	0	0	0	0	506	3	
15	0	0	0	0	507	3	
0	0	0	0	0	505	3	
1	0	0	0	0	505	6	
2	0	0	0	0	507	3	
3	0	0	0	0	506	3	
4	0	0	0	0	507	3	
5	0	0	0	0	506	0	
6	0	0	0	0	506	3	
7	0	0	0	0	508	3	
8	0	0	0	0	508	3	
9	0	0	0	0	506	6	
10	0	0	0	0	508	3	
11	0	0	0	0	505	3	
12	0	0	0	0	508	3	
13	0	0	0	0	507	0	
14	0	0	0	0	508	3	
15	0	0	0	0	507	3	
0	0	0	0	0	505	3	
1	0	0	0	0	506	6	
2	0	0	0	0	506	3	
3	0	0	0	0	506	3	
4	0	0	0	0	507	3	
5	0	0	0	0	507	0	
6	0	0	0	0	508	3	
7	0	0	0	0	507	3	
8	0	0	0	0	508	3	
9	0	0	0	0	506	6	
10	0	0	0	0	508	3	
11	0	0	0	0	506	3	
12	0	0	0	0	506	3	
13	0	0	0	0	506	0	
14	0	0	0	0	507	3	
15	0	0	0	0	506	3	
0	0	0	0	0	509	3	
1	0	0	0	0	506	6	
2	0	0	0	0	508	3	
3	0	0	0	0	507	3	
4	0	0	0	0	506	3	
5	0	0	0	0	505	0	
6	0	0	0	0	505	3	
7	0	0	0	0	507	3	
8	0	0	0	0	507	3	
9	0	0	0	0	507	6	
10	0	0	0	0	506	3	
11	0	0	0	0	506	3	
12	0	0	0	0	505	3	
13	0	0	0	0	504	0	
14	0	0	0	0	505	3	
15	0	0	0	0	507	3	
0	0	0	0	0	508	3	
1	0	0	0	0	505	6	
2	0	0	0	0	508	3	
3	0	0	0	0	507	3	
4	0	0	0	0	507	3	
5	0	0	0	0	508	0	
6	0	0	0	0	507	3	
7	0	0	0	0	508	3	
8	0	0	0	0	505	3	
9	0	0	0	0	505	6	
10	0	0	0	0	507	3	
11	0	0	0	0	508	3	
12	0	0	0	0	506	3	
13	0	0	0	0	505	0	
14	0	0	0	0	506	3	
15	0	0	0	0	508	3	
0	0	0	0	0	505	3	
1	0	0	0	0	508	6	
2	0	0	0	0	508	3	
3	0	0	0	0	507	3	
4	0	0	0	0	508	3	
5	0	0	0	0	507	0	
6	0	0	0	0	507	3	
7	0	0	0	0	507	3	
8	0	0	0	0	506	3	
9	0	0	0	0	508	6	
10	0	0	0	0	506	3	
11	0	0	0	0	505	3	
12	0	0	0	0	505	2	
13	0	0	0	0	506	0	
14	0	0	0	0	506	3	
15	0	0	0	0	508	3	
0	0	0	0	0	507	3	
1	0	0	0	0	508	6	
2	0	0	0	0	506	3	
3	0	0	0	0	508	3	
4	0	0	0	0	507	3	
5	0	0	0	0	506	0	
6	0	0	0	0	505	3	
7	0	0	0	0	506	3	
8	0	0	0	0	508	3	
9	0	0	0	0	506	6	
10	0	0	0	0	507	3	
11	0	0	0	0	507	3	
12	0	0	0	0	505	3	
13	0	0	0	0	507	0	
14	0	0	0	0	507	3	
15	0	0	0	0	506	3	
0	0	0	0	0	507	3	
1	0	0	0	0	506	6	
2	0	0	0	0	508	3	
3	0	0	0	0	508	3	
4	0	0	0	0	506	3	
5	0	0	0	0	507	0	
6	0	0	0	0	506	3	
7	0	0	0	0	504	3	
8	0	0	0	0	508	3	
9	0	0	0	0	508	6	
10	0	0	0	0	507	3	
11	0	0	0	0	506	3	
12	0	0	0	0	507	3	
13	0	0	0	0	506	0	
14	0	0	0	0	506	3	
15	0	0	0	0	505	3	
0	0	0	0	0	508	3	
1	0	0	0	0	504	6	
2	0	0	0	0	508	3	
3	0	0	0	0	508	3	
4	0	0	0	0	507	2	
5	0	0	0	0	508	0	
6	0	0	0	0	508	3	
7	0	0	0	0	507	3	
8	0	0	0	0	508	3	
9	0	0	0	0	508	6	
10	0	0	0	0	508	3	
11	0	0	0	0	508	3	
12	0	0	0	0	506	2	
13	0	0	0	0	508	0	
14	0	0	0	0	505	3	
15	0	0	0	0	505	3	
0	0	0	0	0	505	3	
1	0	0	0	0	505	6	
2	0	0	0	0	506	3	
3	0	0	0	0	505	3	
4	0	0	0	0	507	3	
5	0	0	0	0	507	0	
6	0	0	0	0	506	3	
7	0	0	0	0	508	3	
8	0	0	0	0	505	3	
9	0	0	0	0	506	6	
10	0	0	0	0	508	3	
11	0	0	0	0	507	3	
12	0	0	0	0	504	3	
13	0	0	0	0	507	0	
14	0	0	0	0	507	3	
15	0	0	0	0	504	3	
0	0	0	0	0	506	3	
1	0	0	0	0	507	6	
2	0	0	0	0	507	3	
3	0	0	0	0	508	3	
4	0	0	0	0	507	3	
5	0	0	0	0	507	0	
6	0	0	0	0	505	3	
7	0	0	0	0	508	3	
8	0	0	0	0	506	3	
9	0	0	0	0	507	6	
10	0	0	0	0	507	3	
11	0	0	0	0	504	3	
12	0	0	0	0	508	3	
13	0	0	0	0	506	0	
14	0	0	0	0	507	3	
15	0	0	0	0	508	3	
0	0	0	0	0	506	3	
1	0	0	0	0	506	6	
2	0	0	0	0	509	3	
3	0	0	0	0	507	3	
4	0	0	0	0	507	3	
5	0	0	0	0	507	0	
6	0	0	0	0	505	3	
7	0	0	0	0	508	3	
8	0	0	0	0	507	3	
9	0	0	0	0	508	6	
10	0	0	0	0	508	3	
11	0	0	0	0	508	3	
12	0	0	0	0	508	3	
13	0	0	0	0	505	0	
14	0	0	0	0	507	3	
15	0	0	0	0	505	3	
0	0	0	0	0	508	3	
1	0	0	0	0	507	6	
2	0	0	0	0	505	3	
3	0	0	0	0	507	3	
4	0	0	0	0	504	3	
5	0	0	0	0	506	0	
6	0	0	0	0	507	3	
7	0	0	0	0	507	3	
8	0	0	0	0	506	3	
9	0	0	0	0	507	6	
10	0	0	0	0	507	3	
11	0	0	0	0	508	3	
12	0	0	0	0	506	3	
13	0	0	0	0	507	0	
14	0	0	0	0	507	3	
15	0	0	0	0	507	3	
0	0	0	0	0	508	3	
1	0	0	0	0	507	6	
2	0	0	0	0	507	3	
3	0	0	0	0	507	3	
4	0	0	0	0	508	3	
5	0	0	0	0	507	0	
6	0	0	0	0	504	3	
7	0	0	0	0	507	3	
8	0	0	0	0	507	3	
9	0	0	0	0	509	6	
10	0	0	0	0	508	3	
11	0	0	0	0	507	3	
12	0	0	0	0	508	3	
13	0	0	0	0	508	0	
14	0	0	0	0	506	3	
15	0	0	0	0	505	3	
0	0	0	0	0	507	3	
1	0	0	0	0	505	6	
2	0	0	0	0	507	3	
3	0	0	0	0	507	3	
4	0	0	0	0	509	3	
5	0	0	0	0	507	0	
6	0	0	0	0	508	3	
7	0	0	0	0	505	3	
8	0	0	0	0	508	3	
9	0	0	0	0	504	6	
10	0	0	0	0	506	3	
11	0	0	0	0	507	3	
12	0	0	0	0	504	3	
13	0	0	0	0	507	0	
14	0	0	0	0	508	3	
15	0	0	0	0	507	3	
0	0	0	0	0	508	3	
1	0	0	0	0	507	6	
2	0	0	0	0	505	3	
3	0	0	0	0	505	3	
4	0	0	0	0	506	3	
5	0	0	0	0	506	0	
6	0	0	0	0	506	3	
7	0	0	0	0	506	3	
8	0	0	0	0	508	3	
9	0	0	0	0	506	6	
10	0	0	0	0	505	3	
11	0	0	0	0	506	3	
12	0	0	0	0	509	2	
13	0	0	0	0	508	0	
14	0	0	0	0	506	3	
15	0	0	0	0	505	3	
0	0	0	0	0	508	3	
1	0	0	0	0	505	6	
2	0	0	0	0	507	3	
3	0	0	0	0	507	3	
4	0	0	0	0	506	3	
5	0	0	0	0	507	0	
6	0	0	0	0	506	3	
7	0	0	0	0	505	3	
8	0	0	0	0	505	3	
9	0	0	0	0	506	6	
10	0	0	0	0	509	3	
11	0	0	0	0	505	3	
12	0	0	0	0	508	3	
13	0	0	0	0	507	0	
14	0	0	0	0	506	3	
15	0	0	0	0	507	3	
0	0	0	0	0	508	3	
1	0	0	0	0	507	6	
2	0	0	0	0	507	3	
3	0	0	0	0	506	3	
4	0	0	0	0	508	3	
5	0	0	0	0	507	0	
6	0	0	0	0	506	3	
7	0	0	0	0	506	3	
8	0	0	0	0	507	3	
9	0	0	0	0	507	6	
10	0	0	0	0	510	3	
11	0	0	0	0	508	3	
12	0	0	0	0	507	3	
13	0	0	0	0	507	0	
14	0	0	0	0	505	3	
15	0	0	0	0	506	3	
0	0	0	0	0	504	3	
1	0	0	0	0	506	6	
2	0	0	0	0	504	3	
3	0	0	0	0	507	3	
4	0	0	0	0	509	3	
5	0	0	0	0	508	0	
6	0	0	0	0	508	3	
7	0	0	0	0	508	3	
8	0	0	0	0	506	3	
9	0	0	0	0	507	6	
10	0	0	0	0	508	3	
11	0	0	0	0	507	3	
12	0	0	0	0	507	3	
13	0	0	0	0	506	0	
14	0	0	0	0	508	3	
15	0	0	0	0	508	3	
0	0	0	0	0	505	3	
1	0	0	0	0	507	6	
2	0	0	0	0	506	3	
3	0	0	0	0	504	3	
4	0	0	0	0	507	3	
5	0	0	0	0	507	0	
6	0	0	0	0	508	3	
7	0	0	0	0	505	3	
8	0	0	0	0	506	3	
9	0	0	0	0	505	6	
10	0	0	0	0	507	3	
11	0	0	0	0	508	3	
12	0	0	0	0	505	3	
13	0	0	0	0	507	0	
14	0	0	0	0	509	3	
15	0	0	0	0	510	3	
0	0	0	0	0	506	3	
1	0	0	0	0	509	6	
2	0	0	0	0	507	3	
3	0	0	0	0	505	3	
4	0	0	0	0	506	3	
5	0	0	0	0	507	0	
6	0	0	0	0	508	3	
7	0	0	0	0	505	3	
8	0	0	0	0	507	3	
9	0	0	0	0	505	6	
10	0	0	0	0	507	3	
11	0	0	0	0	508	3	
12	0	0	0	0	506	2	
13	0	0	0	0	507	0	
14	0	0	0	0	505	3	
15	0	0	0	0	510	3	
0	0	0	0	0	507	3	
1	0	0	0	0	507	6	
2	0	0	0	0	504	3	
3	0	0	0	0	507	3	
4	0	0	0	0	507	2	
5	0	0	0	0	506	0	
6	0	0	0	0	507	3	
7	0	0	0	0	508	3	
8	0	0	0	0	508	3	
9	0	0	0	0	507	6	
10	0	0	0	0	505	3	
11	0	0	0	0	507	3	
12	0	0	0	0	507	3	
13	0	0	0	0	507	0	
14	0	0	0	0	506	3	
15	0	0	0	0	507	3	
0	0	0	0	0	508	3	
1	0	0	0	0	506	6	
2	0	0	0	0	507	3	
3	0	0	0	0	508	3	
4	0	0	0	0	508	3	
5	0	0	0	0	506	0	
6	0	0	0	0	507	3	
7	0	0	0	0	507	3	
8	0	0	0	0	506	3	
9	0	0	0	0	507	6	
10	0	0	0	0	506	3	
11	0	0	0	0	506	3	
12	0	0	0	0	505	2	
13	0	0	0	0	507	0	
14	0	0	0	0	507	3	
15	0	0	0	0	508	3	
0	0	0	0	0	505	3	
1	0	0	0	0	508	6	
2	0	0	0	0	506	3	
3	0	0	0	0	506	3	
4	0	0	0	0	505	3	
5	0	0	0	0	506	0	
6	0	0	0	0	506	3	
7	0	0	0	0	508	3	
8	0	0	0	0	507	3	
9	0	0	0	0	508	6	
10	0	0	0	0	508	3	
11	0	0	0	0	507	3	
12	0	0	0	0	508	3	
13	0	0	0	0	506	0	
14	0	0	0	0	507	3	
15	0	0	0	0	507	3	
0	0	0	0	0	508	3	
1	0	0	0	0	508	6	
2	0	0	0	0	508	3	
3	0	0	0	0	506	3	
4	0	0	0	0	505	3	
5	0	0	0	0	505	0	
6	0	0	0	0	506	3	
7	0	0	0	0	507	3	
8	0	0	0	0	508	3	
9	0	0	0	0	505	6	
10	0	0	0	0	505	3	
11	0	0	0	0	507	3	
12	0	0	0	0	505	3	
13	0	0	0	0	506	0	
14	0	0	0	0	505	3	
15	0	0	0	0	507	3	
0	0	0	0	0	508	3	
1	0	0	0	0	507	6	
2	0	0	0	0	507	3	
3	0	0	0	0	507	3	
4	0	0	0	0	506	3	
5	0	0	0	0	507	0	
6	0	0	0	0	508	3	
7	0	0	0	0	507	3	
8	0	0	0	0	506	3	
9	0	0	0	0	508	6	
10	0	0	0	0	506	3	
11	0	0	0	0	508	3	
12	0	0	0	0	507	3	
13	0	0	0	0	507	0	
14	0	0	0	0	507	3	
15	0	0	0	0	508	3	
0	0	0	0	0	506	3	
1	0	0	0	0	506	6	
2	0	0	0	0	505	3	
3	0	0	0	0	505	3	
4	0	0	0	0	507	2	
5	0	0	0	0	505	0	
6	0	0	0	0	507	3	
7	0	0	0	0	504	3	
8	0	0	0	0	507	3	
9	0	0	0	0	507	6	
10	0	0	0	0	504	3	
11	0	0	0	0	507	3	
12	0	0	0	0	508	3	
13	0	0	0	0	509	0	
14	0	0	0	0	509	3	
15	0	0	0	0	508	3	
0	0	0	0	0	506	3	
1	0	0	0	0	508	6	
2	0	0	0	0	507	3	
3	0	0	0	0	507	3	
4	0	0	0	0	509	3	
5	0	0	0	0	509	0	
6	0	0	0	0	506	3	
7	0	0	0	0	504	3	
8	0	0	0	0	503	3	
9	0	0	0	0	509	6	
10	0	0	0	0	505	3	
11	0	0	0	0	506	3	
12	0	0	0	0	508	3	
13	0	0	0	0	508	0	
14	0	0	0	0	505	3	
15	0	0	0	0	507	3	
0	0	0	0	0	508	3	
1	0	0	0	0	505	6	
2	0	0	0	0	506	3	
3	0	0	0	0	509	3	
4	0	0	0	0	507	3	
5	0	0	0	0	506	0	
6	0	0	0	0	508	3	
7	0	0	0	0	507	3	
8	0	0	0	0	505	3	
9	0	0	0	0	506	6	
10	0	0	0	0	508	3	
11	0	0	0	0	505	3	
12	0	0	0	0	507	2	
13	0	0	0	0	508	0	
14	0	0	0	0	507	3	
15	0	0	0	0	508	3	
0	0	0	0	0	507	3	
1	0	0	0	0	508	6	
2	0	0	0	0	506	3	
3	0	0	0	0	507	3	
4	0	0	0	0	505	3	
5	0	0	0	0	508	0	
6	0	0	0	0	504	3	
7	0	0	0	0	508	3	
8	0	0	0	0	506	3	
9	0	0	0	0	505	6	
10	0	0	0	0	507	3	
11	0	0	0	0	508	3	
12	0	0	0	0	507	3	
13	0	0	0	0	508	0	
14	0	0	0	0	507	3	
15	0	0	0	0	507	3	
0	0	0	0	0	508	3	
1	0	0	0	0	507	6	
2	0	0	0	0	506	3	
3	0	0	0	0	508	3	
4	0	0	0	0	508	3	
5	0	0	0	0	507	0	
6	0	0	0	0	508	3	
7	0	0	0	0	507	3	
8	0	0	0	0	505	3	
9	0	0	0	0	507	6	
10	0	0	0	0	508	3	
11	0	0	0	0	504	3	
12	0	0	0	0	506	2	
13	0	0	0	0	508	0	
14	0	0	0	0	506	3	
15	0	0	0	0	504	3	
0	0	0	0	0	505	3	
1	0	0	0	0	507	6	
2	0	0	0	0	509	3	
3	0	0	0	0	507	3	
4	0	0	0	0	506	2	
5	0	0	0	0	508	0	
6	0	0	0	0	507	3	
7	0	0	0	0	508	3	
8	0	0	0	0	508	3	
9	0	0	0	0	507	6	
10	0	0	0	0	506	3	
11	0	0	0	0	509	3	
12	0	0	0	0	506	3	
13	0	0	0	0	505	0	
14	0	0	0	0	506	3	
15	0	0	0	0	507	3	
0	0	0	0	0	505	3	
1	0	0	0	0	508	6	
2	0	0	0	0	505	3	
3	0	0	0	0	508	3	
4	0	0	0	0	507	3	
5	0	0	0	0	507	0	
6	0	0	0	0	507	3	
7	0	0	0	0	508	3	
8	0	0	0	0	506	3	
9	0	0	0	0	507	6	
10	0	0	0	0	506	3	
11	0	0	0	0	508	3	
12	0	0	0	0	505	3	
13	0	0	0	0	507	0	
14	0	0	0	0	506	3	
15	0	0	0	0	507	3	
0	0	0	0	0	509	3	
1	0	0	0	0	507	6	
2	0	0	0	0	505	3	
3	0	0	0	0	505	3	
4	0	0	0	0	507	2	
5	0	0	0	0	505	0	
6	0	0	0	0	507	3	
7	0	0	0	0	506	3	
8	0	0	0	0	504	3	
9	0	0	0	0	506	6	
10	0	0	0	0	507	3	
11	0	0	0	0	506	3	
12	0	0	0	0	507	2	
13	0	0	0	0	507	0	
14	0	0	0	0	507	3	
15	0	0	0	0	507	3	
0	0	0	0	0	508	3	
1	0	0	0	0	509	6	
2	0	0	0	0	504	3	
3	0	0	0	0	505	3	
4	0	0	0	0	508	3	
5	0	0	0	0	508	0	
6	0	0	0	0	508	3	
7	0	0	0	0	507	3	
8	0	0	0	0	505	3	
9	0	0	0	0	506	6	
10	0	0	0	0	506	3	
11	0	0	0	0	505	3	
12	0	0	0	0	504	3	
13	0	0	0	0	505	0	
14	0	0	0	0	507	3	
15	0	0	0	0	507	3	
0	0	0	0	0	508	3	
1	0	0	0	0	509	6	
2	0	0	0	0	507	3	
3	0	0	0	0	505	3	
4	0	0	0	0	506	2	
5	0	0	0	0	506	0	
6	0	0	0	0	505	3	
7	0	0	0	0	508	3	
8	0	0	0	0	508	3	
9	0	0	0	0	506	6	
10	0	0	0	0	508	3	
11	0	0	0	0	507	3	
12	0	0	0	0	506	2	
13	0	0	0	0	507	0	
14	0	0	0	0	508	3	
15	0	0	0	0	508	3	
0	0	0	0	0	507	3	
1	0	0	0	0	505	6	
2	0	0	0	0	505	3	
3	0	0	0	0	505	3	
4	0	0	0	0	505	3	
5	0	0	0	0	507	0	
6	0	0	0	0	507	3	
7	0	0	0	0	509	3	
8	0	0	0	0	505	3	
9	0	0	0	0	507	6	
10	0	0	0	0	507	3	
11	0	0	0	0	508	3	
12	0	0	0	0	506	3	
13	0	0	0	0	508	0	
14	0	0	0	0	509	3	
15	0	0	0	0	506	3	
0	0	0	0	0	506	3	
1	0	0	0	0	507	6	
2	0	0	0	0	505	3	
3	0	0	0	0	506	3	
4	0	0	0	0	504	3	
5	0	0	0	0	505	0	
6	0	0	0	0	505	3	
7	0	0	0	0	507	3	
8	0	0	0	0	505	3	
9	0	0	0	0	508	6	
10	0	0	0	0	508	3	
11	0	0	0	0	508	3	
12	0	0	0	0	509	3	
13	0	0	0	0	506	0	
14	0	0	0	0	506	3	
15	0	0	0	0	508	3	
0	0	0	0	0	505	3	
1	0	0	0	0	505	6	
2	0	0	0	0	507	3	
3	0	0	0	0	508	3	
4	0	0	0	0	508	3	
5	0	0	0	0	505	0	
6	0	0	0	0	506	3	
7	0	0	0	0	508	3	
8	0	0	0	0	506	3	
9	0	0	0	0	507	6	
10	0	0	0	0	508	3	
11	0	0	0	0	507	3	
12	0	0	0	0	505	3	
13	0	0	0	0	506	0	
14	0	0	0	0	506	3	
15	0	0	0	0	506	3	
0	0	0	0	0	507	3	
1	0	0	0	0	507	6	
2	0	0	0	0	505	3	
3	0	0	0	0	509	3	
4	0	0	0	0	505	3	
5	0	0	0	0	508	0	
6	0	0	0	0	507	3	
7	0	0	0	0	509	3	
8	0	0	0	0	508	3	
9	0	0	0	0	508	6	
10	0	0	0	0	507	3	
11	0	0	0	0	505	3	
12	0	0	0	0	506	3	
13	0	0	0	0	508	0	
14	0	0	0	0	507	3	
15	0	0	0	0	506	3	
0	0	0	0	0	508	3	
1	0	0	0	0	505	6	
2	0	0	0	0	506	3	
3	0	0	0	0	507	3	
4	0	0	0	0	507	3	
5	0	0	0	0	506	0	
6	0	0	0	0	507	3	
7	0	0	0	0	509	3	
8	0	0	0	0	506	3	
9	0	0	0	0	506	6	
10	0	0	0	0	507	3	
11	0	0	0	0	507	3	
12	0	0	0	0	506	3	
13	0	0	0	0	504	0	
14	0	0	0	0	508	3	
15	0	0	0	0	506	3	
0	0	0	0	0	507	3	
1	0	0	0	0	506	6	
2	0	0	0	0	507	3	
3	0	0	0	0	508	3	
4	0	0	0	0	508	3	
5	0	0	0	0	506	0	
6	0	0	0	0	505	3	
7	0	0	0	0	506	3	
8	0	0	0	0	505	3	
9	0	0	0	0	505	6	
10	0	0	0	0	506	3	
11	0	0	0	0	508	3	
12	0	0	0	0	507	3	
13	0	0	0	0	507	0	
14	0	0	0	0	504	3	
15	0	0	0	0	507	3	
0	0	0	0	0	507	3	
1	0	0	0	0	508	6	
2	0	0	0	0	507	3	
3	0	0	0	0	507	3	
4	0	0	0	0	508	3	
5	0	0	0	0	508	0	
6	0	0	0	0	508	3	
7	0	0	0	0	506	3	
8	0	0	0	0	505	3	
9	0	0	0	0	505	6	
10	0	0	0	0	507	3	
11	0	0	0	0	507	3	
12	0	0	0	0	508	3	
13	0	0	0	0	508	0	
14	0	0	0	0	508	3	
15	0	0	0	0	506	3	
0	0	0	0	0	505	3	
1	0	0	0	0	507	6	
2	0	0	0	0	507	3	
3	0	0	0	0	506	3	
4	0	0	0	0	506	3	
5	0	0	0	0	505	0	
6	0	0	0	0	508	3	
7	0	0	0	0	507	3	
8	0	0	0	0	507	3	
9	0	0	0	0	507	6	
10	0	0	0	0	507	3	
11	0	0	0	0	508	3	
12	0	0	0	0	507	3	
13	0	0	0	0	508	0	
14	0	0	0	0	508	3	
15	0	0	0	0	505	3	
0	0	0	0	0	508	3	
1	0	0	0	0	507	6	
2	0	0	0	0	504	3	
3	0	0	0	0	508	3	
4	0	0	0	0	508	3	
5	0	0	0	0	506	0	
6	0	0	0	0	508	3	
7	0	0	0	0	505	3	
8	0	0	0	0	508	3	
9	0	0	0	0	508	6	
10	0	0	0	0	509	3	
11	0	0	0	0	508	3	
12	0	0	0	0	505	3	
13	0	0	0	0	505	0	
14	0	0	0	0	504	3	
15	0	0	0	0	508	3	
0	0	0	0	0	507	3	
1	0	0	0	0	505	6	
2	0	0	0	0	506	3	
3	0	0	0	0	505	3	
4	0	0	0	0	505	3	
5	0	0	0	0	507	0	
6	0	0	0	0	506	3	
7	0	0	0	0	507	3	
8	0	0	0	0	505	3	
9	0	0	0	0	507	6	
10	0	0	0	0	507	3	
11	0	0	0	0	507	3	
12	0	0	0	0	505	2	
13	0	0	0	0	506	0	
14	0	0	0	0	506	3	
15	0	0	0	0	506	3	
0	0	0	0	0	507	3	
1	0	0	0	0	507	6	
2	0	0	0	0	507	3	
3	0	0	0	0	508	3	
4	0	0	0	0	508	3	
5	0	0	0	0	507	0	
6	0	0	0	0	507	3	
7	0	0	0	0	508	3	
8	0	0	0	0	507	3	
9	0	0	0	0	507	6	
10	0	0	0	0	505	3	
11	0	0	0	0	504	3	
12	0	0	0	0	506	3	
13	0	0	0	0	507	0	
14	0	0	0	0	507	3	
15	0	0	0	0	507	3	
0	0	0	0	0	507	3	
1	0	0	0	0	507	6	
2	0	0	0	0	508	3	
3	0	0	0	0	508	3	
4	0	0	0	0	507	3	
5	0	0	0	0	506	0	
6	0	0	0	0	507	3	
7	0	0	0	0	507	3	
8	0	0	0	0	508	3	
9	0	0	0	0	506	6	
10	0	0	0	0	505	3	
11	0	0	0	0	508	3	
12	0	0	0	0	508	3	
13	0	0	0	0	508	0	
14	0	0	0	0	506	3	
15	0	0	0	0	507	3	
0	0	0	0	0	507	3	
1	0	0	0	0	504	6	
2	0	0	0	0	505	3	
3	0	0	0	0	508	3	
4	0	0	0	0	508	2	
5	0	0	0	0	506	0	
6	0	0	0	0	507	3	
7	0	0	0	0	507	3	
8	0	0	0	0	506	3	
9	0	0	0	0	506	6	
10	0	0	0	0	507	3	
11	0	0	0	0	506	3	
12	0	0	0	0	508	3	
13	0	0	0	0	508	0	
14	0	0	0	0	506	3	
15	0	0	0	0	507	3	
0	0	0	0	0	506	3	
1	0	0	0	0	508	6	
2	0	0	0	0	508	3	
3	0	0	0	0	508	3	
4	0	0	0	0	508	3	
5	0	0	0	0	507	0	
6	0	0	0	0	505	3	
7	0	0	0	0	506	3	
8	0	0	0	0	504	3	
9	0	0	0	0	505	6	
10	0	0	0	0	506	3	
11	0	0	0	0	505	3	
12	0	0	0	0	506	3	
13	0	0	0	0	506	0	
14	0	0	0	0	508	3	
15	0	0	0	0	508	3	
0	0	0	0	0	511	3	
1	0	0	0	0	508	6	
2	0	0	0	0	507	3	
3	0	0	0	0	508	3	
4	0	0	0	0	507	3	
5	0	0	0	0	506	0	
6	0	0	0	0	507	3	
7	0	0	0	0	504	3	
8	0	0	0	0	506	3	
9	0	0	0	0	505	6	
10	0	0	0	0	507	3	
11	0	0	0	0	505	3	
12	0	0	0	0	508	3	
13	0	0	0	0	508	0	
14	0	0	0	0	507	3	
15	0	0	0	0	507	3	
0	0	0	0	0	507	3	
1	0	0	0	0	506	6	
2	0	0	0	0	507	3	
3	0	0	0	0	507	3	
4	0	0	0	0	507	3	
5	0	0	0	0	506	0	
6	0	0	0	0	506	3	
7	0	0	0	0	506	3	
8	0	0	0	0	506	3	
9	0	0	0	0	508	6	
10	0	0	0	0	506	3	
11	0	0	0	0	508	3	
12	0	0	0	0	507	3	
13	0	0	0	0	507	0	
14	0	0	0	0	508	3	
15	0	0	0	0	508	3	
0	0	0	0	0	508	3	
1	0	0	0	0	507	6	
2	0	0	0	0	507	3	
3	0	0	0	0	508	3	
4	0	0	0	0	505	3	
5	0	0	0	0	506	0	
6	0	0	0	0	508	3	
7	0	0	0	0	505	3	
8	0	0	0	0	506	3	
9	0	0	0	0	508	6	
10	0	0	0	0	506	3	
11	0	0	0	0	505	3	
12	0	0	0	0	506	3	
13	0	0	0	0	507	0	
14	0	0	0	0	503	3	
15	0	0	0	0	509	3	
0	0	0	0	0	507	3	
1	0	0	0	0	507	6	
2	0	0	0	0	508	3	
3	0	0	0	0	507	3	
4	0	0	0	0	507	3	
5	0	0	0	0	507	0	
6	0	0	0	0	507	3	
7	0	0	0	0	505	3	
8	0	0	0	0	508	3	
9	0	0	0	0	509	6	
10	0	0	0	0	506	3	
11	0	0	0	0	507	3	
12	0	0	0	0	507	2	
13	0	0	0	0	505	0	
14	0	0	0	0	508	3	
15	0	0	0	0	507	3	
0	0	0	0	0	507	3	
1	0	0	0	0	506	6	
2	0	0	0	0	507	3	
3	0	0	0	0	508	3	
4	0	0	0	0	508	3	
5	0	0	0	0	508	0	
6	0	0	0	0	506	3	
7	0	0	0	0	506	3	
8	0	0	0	0	506	3	
9	0	0	0	0	505	6	
10	0	0	0	0	505	3	
11	0	0	0	0	507	3	
12	0	0	0	0	508	3	
13	0	0	0	0	508	0	
14	0	0	0	0	507	3	
15	0	0	0	0	506	3	
0	0	0	0	0	508	3	
1	0	0	0	0	507	6	
2	0	0	0	0	505	3	
3	0	0	0	0	504	3	
4	0	0	0	0	505	3	
5	0	0	0	0	506	0	
6	0	0	0	0	505	3	
7	0	0	0	0	508	3	
8	0	0	0	0	509	3	
9	0	0	0	0	509	6	
10	0	0	0	0	505	3	
11	0	0	0	0	504	3	
12	0	0	0	0	506	3	
13	0	0	0	0	506	0	
14	0	0	0	0	506	3	
15	0	0	0	0	508	3	
0	0	0	0	0	508	3	
1	0	0	0	0	507	6	
2	0	0	0	0	506	3	
3	0	0	0	0	508	3	
4	0	0	0	0	508	3	
5	0	0	0	0	507	0	
6	0	0	0	0	505	3	
7	0	0	0	0	508	3	
8	0	0	0	0	507	3	
9	0	0	0	0	507	6	
10	0	0	0	0	506	3	
11	0	0	0	0	508	3	
12	0	0	0	0	504	3	
13	0	0	0	0	505	0	
14	0	0	0	0	504	3	
15	0	0	0	0	507	3	
0	0	0	0	0	508	3	
1	0	0	0	0	506	6	
2	0	0	0	0	507	3	
3	0	0	0	0	510	3	
4	0	0	0	0	508	3	
5	0	0	0	0	505	0	
6	0	0	0	0	506	3	
7	0	0	0	0	506	3	
8	0	0	0	0	505	3	
9	0	0	0	0	505	6	
10	0	0	0	0	508	3	
11	0	0	0	0	508	3	
12	0	0	0	0	508	3	
13	0	0	0	0	507	0	
14	0	0	0	0	506	3	
15	0	0	0	0	505	3	
0	0	0	0	0	506	3	
1	0	0	0	0	507	6	
2	0	0	0	0	507	3	
3	0	0	0	0	508	3	
4	0	0	0	0	507	3	
5	0	0	0	0	506	0	
6	0	0	0	0	504	3	
7	0	0	0	0	508	3	
8	0	0	0	0	506	3	
9	0	0	0	0	508	6	
10	0	0	0	0	508	3	
11	0	0	0	0	508	3	
12	0	0	0	0	508	3	
13	0	0	0	0	507	0	
14	0	0	0	0	508	3	
15	0	0	0	0	507	3	
0	0	0	0	0	505	3	
1	0	0	0	0	507	6	
2	0	0	0	0	507	3	
3	0	0	0	0	506	3	
4	0	0	0	0	506	3	
5	0	0	0	0	506	0	
6	0	0	0	0	507	3	
7	0	0	0	0	506	3	
8	0	0	0	0	507	3	
9	0	0	0	0	507	6	
10	0	0	0	0	507	3	
11	0	0	0	0	508	3	
12	0	0	0	0	506	3	
13	0	0	0	0	506	0	
14	0	0	0	0	504	3	
15	0	0	0	0	505	3	
0	0	0	0	0	507	3	
1	0	0	0	0	506	6	
2	0	0	0	0	507	3	
3	0	0	0	0	507	3	
4	0	0	0	0	507	3	
5	0	0	0	0	504	0	
6	0	0	0	0	504	3	
7	0	0	0	0	507	3	
8	0	0	0	0	505	3	
9	0	0	0	0	509	6	
10	0	0	0	0	509	3	
11	0	0	0	0	506	3	
12	0	0	0	0	506	2	
13	0	0	0	0	508	0	
14	0	0	0	0	506	3	
15	0	0	0	0	506	3	
0	0	0	0	0	508	3	
1	0	0	0	0	506	6	
2	0	0	0	0	508	3	
3	0	0	0	0	505	3	
4	0	0	0	0	507	2	
5	0	0	0	0	505	0	
6	0	0	0	0	507	3	
7	0	0	0	0	505	3	
8	0	0	0	0	505	3	
9	0	0	0	0	508	6	
10	0	0	0	0	508	3	
11	0	0	0	0	504	3	
12	0	0	0	0	506	3	
13	0	0	0	0	508	0	
14	0	0	0	0	506	3	
15	0	0	0	0	505	3	
0	0	0	0	0	505	3	
1	0	0	0	0	506	6	
2	0	0	0	0	506	3	
3	0	0	0	0	506	3	
4	0	0	0	0	507	3	
5	0	0	0	0	507	0	
6	0	0	0	0	508	3	
7	0	0	0	0	505	3	
8	0	0	0	0	505	3	
9	0	0	0	0	506	6	
10	0	0	0	0	507	3	
11	0	0	0	0	506	3	
12	0	0	0	0	506	3	
13	0	0	0	0	505	0	
14	0	0	0	0	508	3	
15	0	0	0	0	507	3	
0	0	0	0	0	508	3	
1	0	0	0	0	506	6	
2	0	0	0	0	504	3	
3	0	0	0	0	507	3	
4	0	0	0	0	507	3	
5	0	0	0	0	508	0	
6	0	0	0	0	505	3	
7	0	0	0	0	506	3	
8	0	0	0	0	508	3	
9	0	0	0	0	507	6	
10	0	0	0	0	507	3	
11	0	0	0	0	507	3	
12	0	0	0	0	508	3	
13	0	0	0	0	506	0	
14	0	0	0	0	506	3	
15	0	0	0	0	507	3	
0	0	0	0	0	506	3	
1	0	0	0	0	507	6	
2	0	0	0	0	507	3	
3	0	0	0	0	508	3	
4	0	0	0	0	505	3	
5	0	0	0	0	505	0	
6	0	0	0	0	506	3	
7	0	0	0	0	505	3	
8	0	0	0	0	508	3	
9	0	0	0	0	506	6	
10	0	0	0	0	507	3	
11	0	0	0	0	508	3	
12	0	0	0	0	507	3	
13	0	0	0	0	505	0	
14	0	0	0	0	506	3	
15	0	0	0	0	505	3	
0	0	0	0	0	507	3	
1	0	0	0	0	506	6	
2	0	0	0	0	509	3	
3	0	0	0	0	508	3	
4	0	0	0	0	509	3	
5	0	0	0	0	508	0	
6	0	0	0	0	506	3	
7	0	0	0	0	506	3	
8	0	0	0	0	505	3	
9	0	0	0	0	507	6	
10	0	0	0	0	507	3	
11	0	0	0	0	507	3	
12	0	0	0	0	508	3	
13	0	0	0	0	505	0	
14	0	0	0	0	505	3	
15	0	0	0	0	505	3	
0	0	0	0	0	505	3	
1	0	0	0	0	507	6	
2	0	0	0	0	507	3	
3	0	0	0	0	509	3	
4	0	0	0	0	507	3	
5	0	0	0	0	507	0	
6	0	0	0	0	507	3	
7	0	0	0	0	506	3	
8	0	0	0	0	508	3	
9	0	0	0	0	508	6	
10	0	0	0	0	507	3	
11	0	0	0	0	508	3	
12	0	0	0	0	506	3	
13	0	0	0	0	506	0	
14	0	0	0	0	507	3	
15	0	0	0	0	506	3	
0	0	0	0	0	508	3	
1	0	0	0	0	508	6	
2	0	0	0	0	505	3	
3	0	0	0	0	508	3	
4	0	0	0	0	507	3	
5	0	0	0	0	505	0	
6	0	0	0	0	504	3	
7	0	0	0	0	506	3	
8	0	0	0	0	508	3	
9	0	0	0	0	507	6	
10	0	0	0	0	508	3	
11	0	0	0	0	507	3	
12	0	0	0	0	507	3	
13	0	0	0	0	507	0	
14	0	0	0	0	506	3	
15	0	0	0	0	509	3	
0	0	0	0	0	508	3	
1	0	0	0	0	505	6	
2	0	0	0	0	505	3	
3	0	0	0	0	506	3	
4	0	0	0	0	507	3	
5	0	0	0	0	507	0	
6	0	0	0	0	506	3	
7	0	0	0	0	506	3	
8	0	0	0	0	505	3	
9	0	0	0	0	509	6	
10	0	0	0	0	508	3	
11	0	0	0	0	507	3	
12	0	0	0	0	508	3	
13	0	0	0	0	505	0	
14	0	0	0	0	505	3	
15	0	0	0	0	505	3	
0	0	0	0	0	508	3	
1	0	0	0	0	509	6	
2	0	0	0	0	505	3	
3	0	0	0	0	507	3	
4	0	0	0	0	506	3	
5	0	0	0	0	507	0	
6	0	0	0	0	508	3	
7	0	0	0	0	506	3	
8	0	0	0	0	506	3	
9	0	0	0	0	507	6	
10	0	0	0	0	507	3	
11	0	0	0	0	508	3	
12	0	0	0	0	508	3	
13	0	0	0	0	507	0	
14	0	0	0	0	504	3	
15	0	0	0	0	505	3	
0	0	0	0	0	508	3	
1	0	0	0	0	508	6	
2	0	0	0	0	509	3	
3	0	0	0	0	507	3	
4	0	0	0	0	505	3	
5	0	0	0	0	507	0	
6	0	0	0	0	506	3	
7	0	0	0	0	505	3	
8	0	0	0	0	508	3	
9	0	0	0	0	507	6	
10	0	0	0	0	506	3	
11	0	0	0	0	508	3	
12	0	0	0	0	506	3	
13	0	0	0	0	505	0	
14	0	0	0	0	507	3	
15	0	0	0	0	509	3	
0	0	0	0	0	508	3	
1	0	0	0	0	505	6	
2	0	0	0	0	507	3	
3	0	0	0	0	505	3	
4	0	0	0	0	505	3	
5	0	0	0	0	507	0	
6	0	0	0	0	507	3	
7	0	0	0	0	508	3	
8	0	0	0	0	508	3	
9	0	0	0	0	507	6	
10	0	0	0	0	504	3	
11	0	0	0	0	506	3	
12	0	0	0	0	507	3	
13	0	0	0	0	505	0	
14	0	0	0	0	506	3	
15	0	0	0	0	508	3	
0	0	0	0	0	508	3	
1	0	0	0	0	508	6	
2	0	0	0	0	508	3	
3	0	0	0	0	508	3	
4	0	0	0	0	507	3	
5	0	0	0	0	506	0	
6	0	0	0	0	506	3	
7	0	0	0	0	507	3	
8	0	0	0	0	508	3	
9	0	0	0	0	506	6	
10	0	0	0	0	507	3	
11	0	0	0	0	507	3	
12	0	0	0	0	507	3	
13	0	0	0	0	507	0	
14	0	0	0	0	505	3	
15	0	0	0	0	507	3	
0	0	0	0	0	508	3	
1	0	0	0	0	508	6	
2	0	0	0	0	506	3	
3	0	0	0	0	506	3	
4	0	0	0	0	507	3	
5	0	0	0	0	507	0	
6	0	0	0	0	506	3	
7	0	0	0	0	507	3	
8	0	0	0	0	508	3	
9	0	0	0	0	505	6	
10	0	0	0	0	508	3	
11	0	0	0	0	507	3	
12	0	0	0	0	508	2	
13	0	0	0	0	506	0	
14	0	0	0	0	505	3	
15	0	0	0	0	507	3	
0	0	0	0	0	507	3	
1	0	0	0	0	508	6	
2	0	0	0	0	507	3	
3	0	0	0	0	505	3	
4	0	0	0	0	505	3	
5	0	0	0	0	507	0	
6	0	0	0	0	507	3	
7	0	0	0	0	505	3	
8	0	0	0	0	506	3	
9	0	0	0	0	507	6	
10	0	0	0	0	507	3	
11	0	0	0	0	506	3	
12	0	0	0	0	505	3	
13	0	0	0	0	508	0	
14	0	0	0	0	507	3	
15	0	0	0	0	509	3	
0	0	0	0	0	507	3	
1	0	0	0	0	507	6	
2	0	0	0	0	508	3	
3	0	0	0	0	507	3	
4	0	0	0	0	505	2	
5	0	0	0	0	506	0	
6	0	0	0	0	507	3	
7	0	0	0	0	505	3	
8	0	0	0	0	506	3	
9	0	0	0	0	505	6	
10	0	0	0	0	505	3	
11	0	0	0	0	507	3	
12	0	0	0	0	508	2	
13	0	0	0	0	507	0	
14	0	0	0	0	508	3	
15	0	0	0	0	507	3	
0	0	0	0	0	505	3	
1	0	0	0	0	505	6	
2	0	0	0	0	504	3	
3	0	0	0	0	507	3	
4	0	0	0	0	508	3	
5	0	0	0	0	508	0	
6	0	0	0	0	507	3	
7	0	0	0	0	508	3	
8	0	0	0	0	504	3	
9	0	0	0	0	506	6	
10	0	0	0	0	507	3	
11	0	0	0	0	506	3	
12	0	0	0	0	508	3	
13	0	0	0	0	509	0	
14	0	0	0	0	507	3	
15	0	0	0	0	507	3	
0	0	0	0	0	505	3	
1	0	0	0	0	507	6	
2	0	0	0	0	508	3	
3	0	0	0	0	508	3	
4	0	0	0	0	507	3	
5	0	0	0	0	506	0	
6	0	0	0	0	506	3	
7	0	0	0	0	507	3	
8	0	0	0	0	506	3	
9	0	0	0	0	506	6	
10	0	0	0	0	506	3	
11	0	0	0	0	506	3	
12	0	0	0	0	507	3	
13	0	0	0	0	508	0	
14	0	0	0	0	507	3	
15	0	0	0	0	506	3	
0	0	0	0	0	508	3	
1	0	0	0	0	506	6	
2	0	0	0	0	509	3	
3	0	0	0	0	507	3	
4	0	0	0	0	507	3	
5	0	0	0	0	506	0	
6	0	0	0	0	508	3	
7	0	0	0	0	508	3	
8	0	0	0	0	505	3	
9	0	0	0	0	508	6	
10	0	0	0	0	507	3	
11	0	0	0	0	507	3	
12	0	0	0	0	506	2	
13	0	0	0	0	506	0	
14	0	0	0	0	505	3	
15	0	0	0	0	506	3	
0	0	0	0	0	508	3	
1	0	0	0	0	508	6	
2	0	0	0	0	506	3	
3	0	0	0	0	507	3	
4	0	0	0	0	508	3	
5	0	0	0	0	507	0	
6	0	0	0	0	507	3	
7	0	0	0	0	508	3	
8	0	0	0	0	507	3	
9	0	0	0	0	508	6	
10	0	0	0	0	504	3	
11	0	0	0	0	505	3	
12	0	0	0	0	504	3	
13	0	0	0	0	507	0	
14	0	0	0	0	506	3	
15	0	0	0	0	508	3	
0	0	0	0	0	507	3	
1	0	0	0	0	507	6	
2	0	0	0	0	508	3	
3	0	0	0	0	508	3	
4	0	0	0	0	505	3	
5	0	0	0	0	508	0	
6	0	0	0	0	507	3	
7	0	0	0	0	506	3	
8	0	0	0	0	506	3	
9	0	0	0	0	508	6	
10	0	0	0	0	507	3	
11	0	0	0	0	507	3	
12	0	0	0	0	506	2	
13	0	0	0	0	506	0	
14	0	0	0	0	508	3	
15	0	0	0	0	508	3	
0	0	0	0	0	507	3	
1	0	0	0	0	507	6	
2	0	0	0	0	506	3	
3	0	0	0	0	506	3	
4	0	0	0	0	507	3	
5	0	0	0	0	507	0	
6	0	0	0	0	505	3	
7	0	0	0	0	506	3	
8	0	0	0	0	507	3	
9	0	0	0	0	508	6	
10	0	0	0	0	506	3	
11	0	0	0	0	507	3	
12	0	0	0	0	507	3	
13	0	0	0	0	506	0	
14	0	0	0	0	508	3	
15	0	0	0	0	508	3	
0	0	0	0	0	508	3	
1	0	0	0	0	506	6	
2	0	0	0	0	505	3	
3	0	0	0	0	507	3	
4	0	0	0	0	507	3	
5	0	0	0	0	505	0	
6	0	0	0	0	506	3	
7	0	0	0	0	507	3	
8	0	0	0	0	507	3	
9	0	0	0	0	508	6	
10	0	0	0	0	506	3	
11	0	0	0	0	507	3	
12	0	0	0	0	505	3	
13	0	0	0	0	507	0	
14	0	0	0	0	508	3	
15	0	0	0	0	505	3	
0	0	0	0	0	507	3	
1	0	0	0	0	504	6	
2	0	0	0	0	506	3	
3	0	0	0	0	506	3	
4	0	0	0	0	507	3	
5	0	0	0	0	506	0	
6	0	0	0	0	508	3	
7	0	0	0	0	510	3	
8	0	0	0	0	507	3	
9	0	0	0	0	508	6	
10	0	0	0	0	507	3	
11	0	0	0	0	507	3	
12	0	0	0	0	507	3	
13	0	0	0	0	507	0	
14	0	0	0	0	506	3	
15	0	0	0	0	506	3	
0	0	0	0	0	508	3	
1	0	0	0	0	508	6	
2	0	0	0	0	507	3	
3	0	0	0	0	509	3	
4	0	0	0	0	507	3	
5	0	0	0	0	508	0	
6	0	0	0	0	508	3	
7	0	0	0	0	507	3	
8	0	0	0	0	506	3	
9	0	0	0	0	505	6	
10	0	0	0	0	507	3	
11	0	0	0	0	507	3	
12	0	0	0	0	506	3	
13	0	0	0	0	505	0	
14	0	0	0	0	505	3	
15	0	0	0	0	506	3	
0	0	0	0	0	507	3	
1	0	0	0	0	506	6	
2	0	0	0	0	506	3	
3	0	0	0	0	507	3	
4	0	0	0	0	508	3	
5	0	0	0	0	508	0	
6	0	0	0	0	507	3	
7	0	0	0	0	508	3	
8	0	0	0	0	507	3	
9	0	0	0	0	507	6	
10	0	0	0	0	505	3	
11	0	0	0	0	506	3	
12	0	0	0	0	507	3	
13	0	0	0	0	509	0	
14	0	0	0	0	508	3	
15	0	0	0	0	507	3	
0	0	0	0	0	506	3	
1	0	0	0	0	505	6	
2	0	0	0	0	504	3	
3	0	0	0	0	505	3	
4	0	0	0	0	506	2	
5	0	0	0	0	506	0	
6	0	0	0	0	506	3	
7	0	0	0	0	507	3	
8	0	0	0	0	506	3	
9	0	0	0	0	508	6	
10	0	0	0	0	506	3	
11	0	0	0	0	506	3	
12	0	0	0	0	507	3	
13	0	0	0	0	506	0	
14	0	0	0	0	508	3	
15	0	0	0	0	507	3	
0	0	0	0	0	506	3	
1	0	0	0	0	506	6	
2	0	0	0	0	508	3	
3	0	0	0	0	507	3	
4	0	0	0	0	506	3	
5	0	0	0	0	505	0	
6	0	0	0	0	505	3	
7	0	0	0	0	507	3	
8	0	0	0	0	508	3	
9	0	0	0	0	508	6	
10	0	0	0	0	508	3	
11	0	0	0	0	508	3	
12	0	0	0	0	507	3	
13	0	0	0	0	508	0	
14	0	0	0	0	507	3	
15	0	0	0	0	504	3	
0	0	0	0	0	508	3	
1	0	0	0	0	506	6	
2	0	0	0	0	507	3	
3	0	0	0	0	505	3	
4	0	0	0	0	507	2	
5	0	0	0	0	504	0	
6	0	0	0	0	507	3	
7	0	0	0	0	507	3	
8	0	0	0	0	507	3	
9	0	0	0	0	508	6	
10	0	0	0	0	507	3	
11	0	0	0	0	507	3	
12	0	0	0	0	508	3	
13	0	0	0	0	506	0	
14	0	0	0	0	507	3	
15	0	0	0	0	507	3	
0	0	0	0	0	507	3	
1	0	0	0	0	507	6	
2	0	0	0	0	507	3	
3	0	0	0	0	507	3	
4	0	0	0	0	507	3	
5	0	0	0	0	506	0	
6	0	0	0	0	507	3	
7	0	0	0	0	507	3	
8	0	0	0	0	508	3	
9	0	0	0	0	505	6	
10	0	0	0	0	505	3	
11	0	0	0	0	506	3	
12	0	0	0	0	507	3	
13	0	0	0	0	508	0	
14	0	0	0	0	506	3	
15	0	0	0	0	509	3	
0	0	0	0	0	508	3	
1	0	0	0	0	505	6	
2	0	0	0	0	506	3	
3	0	0	0	0	508	3	
4	0	0	0	0	507	3	
5	0	0	0	0	507	0	
6	0	0	0	0	505	3	
7	0	0	0	0	506	3	
8	0	0	0	0	506	3	
9	0	0	0	0	507	6	
10	0	0	0	0	508	3	
11	0	0	0	0	505	3	
12	0	0	0	0	508	3	
13	0	0	0	0	506	0	
14	0	0	0	0	505	3	
15	0	0	0	0	506	3	
0	0	0	0	0	509	3	
1	0	0	0	0	505	6	
2	0	0	0	0	505	3	
3	0	0	0	0	505	3	
4	0	0	0	0	504	3	
5	0	0	0	0	505	0	
6	0	0	0	0	508	3	
7	0	0	0	0	509	3	
8	0	0	0	0	507	3	
9	0	0	0	0	508	6	
10	0	0	0	0	505	3	
11	0	0	0	0	507	3	
12	0	0	0	0	507	3	
13	0	0	0	0	508	0	
14	0	0	0	0	506	3	
15	0	0	0	0	509	3	
0	0	0	0	0	507	3	
1	0	0	0	0	503	6	
2	0	0	0	0	506	3	
3	0	0	0	0	508	3	
4	0	0	0	0	508	3	
5	0	0	0	0	508	0	
6	0	0	0	0	506	3	
7	0	0	0	0	508	3	
8	0	0	0	0	505	3	
9	0	0	0	0	506	6	
10	0	0	0	0	507	3	
11	0	0	0	0	507	3	
12	0	0	0	0	506	3	
13	0	0	0	0	508	0	
14	0	0	0	0	505	3	
15	0	0	0	0	506	3	
0	0	0	0	0	508	3	
1	0	0	0	0	508	6	
2	0	0	0	0	505	3	
3	0	0	0	0	507	3	
4	0	0	0	0	504	3	
5	0	0	0	0	507	0	
6	0	0	0	0	508	3	
7	0	0	0	0	509	3	
8	0	0	0	0	507	3	
9	0	0	0	0	505	6	
10	0	0	0	0	506	3	
11	0	0	0	0	508	3	
12	0	0	0	0	507	3	
13	0	0	0	0	507	0	
14	0	0	0	0	505	3	
15	0	0	0	0	508	3	
0	0	0	0	0	509	3	
1	0	0	0	0	505	6	
2	0	0	0	0	507	3	
3	0	0	0	0	506	3	
4	0	0	0	0	506	3	
5	0	0	0	0	505	0	
6	0	0	0	0	509	3	
7	0	0	0	0	504	3	
8	0	0	0	0	507	3	
9	0	0	0	0	504	6	
10	0	0	0	0	505	3	
11	0	0	0	0	507	3	
12	0	0	0	0	506	3	
13	0	0	0	0	507	0	
14	0	0	0	0	509	3	
15	0	0	0	0	508	3	
0	0	0	0	0	507	3	
1	0	0	0	0	505	6	
2	0	0	0	0	505	3	
3	0	0	0	0	507	3	
4	0	0	0	0	507	3	
5	0	0	0	0	508	0	
6	0	0	0	0	504	3	
7	0	0	0	0	507	3	
8	0	0	0	0	509	3	
9	0	0	0	0	507	6	
10	0	0	0	0	507	3	
11	0	0	0	0	506	3	
12	0	0	0	0	508	2	
13	0	0	0	0	508	0	
14	0	0	0	0	504	3	
15	0	0	0	0	505	3	
0	0	0	0	0	505	3	
1	0	0	0	0	507	6	
2	0	0	0	0	507	3	
3	0	0	0	0	507	3	
4	0	0	0	0	509	3	
5	0	0	0	0	505	0	
6	0	0	0	0	506	3	
7	0	0	0	0	505	3	
8	0	0	0	0	507	3	
9	0	0	0	0	508	6	
10	0	0	0	0	506	3	
11	0	0	0	0	507	3	
12	0	0	0	0	506	3	
13	0	0	0	0	508	0	
14	0	0	0	0	507	3	
15	0	0	0	0	506	3	
0	0	0	0	0	508	3	
1	0	0	0	0	508	6	
2	0	0	0	0	506	3	
3	0	0	0	0	507	3	
4	0	0	0	0	508	3	
5	0	0	0	0	507	0	
6	0	0	0	0	508	3	
7	0	0	0	0	505	3	
8	0	0	0	0	506	3	
9	0	0	0	0	506	6	
10	0	0	0	0	505	3	
11	0	0	0	0	507	3	
12	0	0	0	0	507	3	
13	0	0	0	0	507	0	
14	0	0	0	0	507	3	
15	0	0	0	0	507	3	
0	0	0	0	0	508	3	
1	0	0	0	0	508	6	
2	0	0	0	0	507	3	
3	0	0	0	0	508	3	
4	0	0	0	0	506	3	
5	0	0	0	0	507	0	
6	0	0	0	0	506	3	
7	0	0	0	0	505	3	
8	0	0	0	0	506	3	
9	0	0	0	0	507	6	
10	0	0	0	0	507	3	
11	0	0	0	0	507	3	
12	0	0	0	0	507	3	
13	0	0	0	0	507	0	
14	0	0	0	0	505	3	
15	0	0	0	0	506	3	
0	0	0	0	0	506	3	
1	0	0	0	0	507	6	
2	0	0	0	0	506	3	
3	0	0	0	0	507	3	
4	0	0	0	0	508	3	
5	0	0	0	0	506	0	
6	0	0	0	0	508	3	
7	0	0	0	0	504	3	
8	0	0	0	0	506	3	
9	0	0	0	0	507	6	
10	0	0	0	0	505	3	
11	0	0	0	0	509	3	
12	0	0	0	0	510	3	
13	0	0	0	0	509	0	
14	0	0	0	0	508	3	
15	0	0	0	0	506	3	
0	0	0	0	0	507	3	
1	0	0	0	0	504	6	
2	0	0	0	0	507	3	
3	0	0	0	0	507	3	
4	0	0	0	0	506	3	
5	0	0	0	0	507	0	
6	0	0	0	0	505	3	
7	0	0	0	0	508	3	
8	0	0	0	0	506	3	
9	0	0	0	0	508	6	
10	0	0	0	0	507	3	
11	0	0	0	0	507	3	
12	0	0	0	0	505	2	
13	0	0	0	0	505	0	
14	0	0	0	0	505	3	
15	0	0	0	0	507	3	
0	0	0	0	0	507	3	
1	0	0	0	0	509	6	
2	0	0	0	0	506	3	
3	0	0	0	0	504	3	
4	0	0	0	0	509	3	
5	0	0	0	0	510	0	
6	0	0	0	0	508	3	
7	0	0	0	0	505	3	
8	0	0	0	0	507	3	
9	0	0	0	0	506	6	
10	0	0	0	0	506	3	
11	0	0	0	0	511	3	
12	0	0	0	0	505	3	
13	0	0	0	0	505	0	
14	0	0	0	0	506	3	
15	0	0	0	0	506	3	
0	0	0	0	0	506	3	
1	0	0	0	0	508	6	
2	0	0	0	0	506	3	
3	0	0	0	0	508	3	
4	0	0	0	0	506	3	
5	0	0	0	0	507	0	
6	0	0	0	0	507	3	
7	0	0	0	0	508	3	
8	0	0	0	0	507	3	
9	0	0	0	0	506	6	
10	0	0	0	0	505	3	
11	0	0	0	0	505	3	
12	0	0	0	0	507	3	
13	0	0	0	0	508	0	
14	0	0	0	0	508	3	
15	0	0	0	0	509	3	
0	0	0	0	0	508	3	
1	0	0	0	0	507	6	
2	0	0	0	0	508	3	
3	0	0	0	0	508	3	
4	0	0	0	0	506	2	
5	0	0	0	0	505	0	
6	0	0	0	0	507	3	
7	0	0	0	0	507	3	
8	0	0	0	0	506	3	
9	0	0	0	0	504	6	
10	0	0	0	0	508	3	
11	0	0	0	0	508	3	
12	0	0	0	0	506	3	
13	0	0	0	0	506	0	
14	0	0	0	0	507	3	
15	0	0	0	0	510	3	
0	0	0	0	0	507	3	
1	0	0	0	0	507	6	
2	0	0	0	0	508	3	
3	0	0	0	0	506	3	
4	0	0	0	0	504	3	
5	0	0	0	0	506	0	
6	0	0	0	0	507	3	
7	0	0	0	0	507	3	
8	0	0	0	0	507	3	
9	0	0	0	0	505	6	
10	0	0	0	0	505	3	
11	0	0	0	0	506	3	
12	0	0	0	0	509	3	
13	0	0	0	0	507	0	
14	0	0	0	0	506	3	
15	0	0	0	0	507	3	
0	0	0	0	0	505	3	
1	0	0	0	0	506	6	
2	0	0	0	0	507	3	
3	0	0	0	0	508	3	
4	0	0	0	0	508	3	
5	0	0	0	0	507	0	
6	0	0	0	0	507	3	
7	0	0	0	0	507	3	
8	0	0	0	0	507	3	
9	0	0	0	0	505	6	
10	0	0	0	0	506	3	
11	0	0	0	0	506	3	
12	0	0	0	0	508	3	
13	0	0	0	0	504	0	
14	0	0	0	0	506	3	
15	0	0	0	0	508	3	
0	0	0	0	0	508	3	
1	0	0	0	0	507	6	
2	0	0	0	0	506	3	
3	0	0	0	0	507	3	
4	0	0	0	0	507	2	
5	0	0	0	0	505	0	
6	0	0	0	0	506	3	
7	0	0	0	0	506	3	
8	0	0	0	0	507	3	
9	0	0	0	0	506	6	
10	0	0	0	0	505	3	
11	0	0	0	0	505	3	
12	0	0	0	0	508	3	
13	0	0	0	0	508	0	
14	0	0	0	0	508	3	
15	0	0	0	0	505	3	
0	0	0	0	0	505	3	
1	0	0	0	0	509	6	
2	0	0	0	0	507	3	
3	0	0	0	0	508	3	
4	0	0	0	0	506	3	
5	0	0	0	0	505	0	
6	0	0	0	0	507	3	
7	0	0	0	0	507	3	
8	0	0	0	0	505	3	
9	0	0	0	0	507	6	
10	0	0	0	0	506	3	
11	0	0	0	0	506	3	
12	0	0	0	0	508	3	
13	0	0	0	0	505	0	
14	0	0	0	0	505	3	
15	0	0	0	0	507	3	
0	0	0	0	0	506	3	
1	0	0	0	0	507	6	
2	0	0	0	0	505	3	
3	0	0	0	0	506	3	
4	0	0	0	0	506	3	
5	0	0	0	0	507	0	
6	0	0	0	0	509	3	
7	0	0	0	0	507	3	
8	0	0	0	0	507	3	
9	0	0	0	0	507	6	
10	0	0	0	0	508	3	
11	0	0	0	0	508	3	
12	0	0	0	0	506	3	
13	0	0	0	0	505	0	
14	0	0	0	0	508	3	
15	0	0	0	0	506	3	
0	0	0	0	0	507	3	
1	0	0	0	0	506	6	
2	0	0	0	0	506	3	
3	0	0	0	0	507	3	
4	0	0	0	0	505	3	
5	0	0	0	0	507	0	
6	0	0	0	0	507	3	
7	0	0	0	0	505	3	
8	0	0	0	0	507	3	
9	0	0	0	0	507	6	
10	0	0	0	0	508	3	
11	0	0	0	0	507	3	
12	0	0	0	0	507	3	
13	0	0	0	0	507	0	
14	0	0	0	0	507	3	
15	0	0	0	0	506	3	
0	0	0	0	0	507	3	
1	0	0	0	0	505	6	
2	0	0	0	0	505	3	
3	0	0	0	0	507	3	
4	0	0	0	0	507	3	
5	0	0	0	0	507	0	
6	0	0	0	0	507	3	
7	0	0	0	0	508	3	
8	0	0	0	0	508	3	
9	0	0	0	0	507	6	
10	0	0	0	0	506	3	
11	0	0	0	0	506	3	
12	0	0	0	0	507	2	
13	0	0	0	0	507	0	
14	0	0	0	0	506	3	
15	0	0	0	0	508	3	
0	0	0	0	0	505	3	
1	0	0	0	0	505	6	
2	0	0	0	0	510	3	
3	0	0	0	0	508	3	
4	0	0	0	0	507	3	
5	0	0	0	0	508	0	
6	0	0	0	0	508	3	
7	0	0	0	0	509	3	
8	0	0	0	0	507	3	
9	0	0	0	0	505	6	
10	0	0	0	0	504	3	
11	0	0	0	0	505	3	
12	0	0	0	0	504	3	
13	0	0	0	0	508	0	
14	0	0	0	0	506	3	
15	0	0	0	0	507	3	
0	0	0	0	0	507	3	
1	0	0	0	0	506	6	
2	0	0	0	0	507	3	
3	0	0	0	0	508	3	
4	0	0	0	0	505	3	
5	0	0	0	0	504	0	
6	0	0	0	0	505	3	
7	0	0	0	0	507	3	
8	0	0	0	0	507	3	
9	0	0	0	0	506	6	
10	0	0	0	0	508	3	
11	0	0	0	0	509	3	
12	0	0	0	0	508	3	
13	0	0	0	0	506	0	
14	0	0	0	0	504	3	
15	0	0	0	0	504	3	
0	0	0	0	0	507	3	
1	0	0	0	0	507	6	
2	0	0	0	0	508	3	
3	0	0	0	0	507	3	
4	0	0	0	0	508	3	
5	0	0	0	0	507	0	
6	0	0	0	0	507	3	
7	0	0	0	0	507	3	
8	0	0	0	0	507	3	
9	0	0	0	0	507	6	
10	0	0	0	0	506	3	
11	0	0	0	0	507	3	
12	0	0	0	0	507	3	
13	0	0	0	0	507	0	
14	0	0	0	0	505	3	
15	0	0	0	0	507	3	
0	0	0	0	0	507	3	
1	0	0	0	0	507	6	
2	0	0	0	0	504	3	
3	0	0	0	0	505	3	
4	0	0	0	0	506	3	
5	0	0	0	0	505	0	
6	0	0	0	0	508	3	
7	0	0	0	0	508	3	
8	0	0	0	0	507	3	
9	0	0	0	0	508	6	
10	0	0	0	0	508	3	
11	0	0	0	0	506	3	
12	0	0	0	0	505	3	
13	0	0	0	0	507	0	
14	0	0	0	0	507	3	
15	0	0	0	0	507	3	
0	0	0	0	0	505	3	
1	0	0	0	0	504	6	
2	0	0	0	0	508	3	
3	0	0	0	0	507	3	
4	0	0	0	0	507	3	
5	0	0	0	0	505	0	
6	0	0	0	0	508	3	
7	0	0	0	0	506	3	
8	0	0	0	0	505	3	
9	0	0	0	0	507	6	
10	0	0	0	0	507	3	
11	0	0	0	0	505	3	
12	0	0	0	0	507	3	
13	0	0	0	0	509	0	
14	0	0	0	0	508	3	
15	0	0	0	0	504	3	
0	0	0	0	0	506	3	
1	0	0	0	0	507	6	
2	0	0	0	0	507	3	
3	0	0	0	0	506	3	
4	0	0	0	0	507	2	
5	0	0	0	0	508	0	
6	0	0	0	0	507	3	
7	0	0	0	0	506	3	
8	0	0	0	0	506	3	
9	0	0	0	0	506	6	
10	0	0	0	0	506	3	
11	0	0	0	0	507	3	
12	0	0	0	0	507	3	
13	0	0	0	0	509	0	
14	0	0	0	0	506	3	
15	0	0	0	0	507	3	
0	0	0	0	0	506	3	
1	0	0	0	0	507	6	
2	0	0	0	0	507	3	
3	0	0	0	0	510	3	
4	0	0	0	0	506	3	
5	0	0	0	0	507	0	
6	0	0	0	0	506	3	
7	0	0	0	0	505	3	
8	0	0	0	0	508	3	
9	0	0	0	0	508	6	
10	0	0	0	0	509	3	
11	0	0	0	0	506	3	
12	0	0	0	0	506	3	
13	0	0	0	0	507	0	
14	0	0	0	0	505	3	
15	0	0	0	0	507	3	
0	0	0	0	0	508	3	
1	0	0	0	0	505	6	
2	0	0	0	0	505	3	
3	0	0	0	0	505	3	
4	0	0	0	0	506	2	
5	0	0	0	0	507	0	
6	0	0	0	0	507	3	
7	0	0	0	0	507	3	
8	0	0	0	0	506	3	
9	0	0	0	0	505	6	
10	0	0	0	0	506	3	
11	0	0	0	0	509	3	
12	0	0	0	0	508	3	
13	0	0	0	0	507	0	
14	0	0	0	0	508	3	
15	0	0	0	0	508	3	
0	0	0	0	0	504	3	
1	0	0	0	0	506	6	
2	0	0	0	0	507	3	
3	0	0	0	0	508	3	
4	0	0	0	0	507	3	
5	0	0	0	0	506	0	
6	0	0	0	0	507	3	
7	0	0	0	0	508	3	
8	0	0	0	0	508	3	
9	0	0	0	0	507	6	
10	0	0	0	0	502	3	
11	0	0	0	0	507	3	
12	0	0	0	0	504	3	
13	0	0	0	0	506	0	
14	0	0	0	0	506	3	
15	0	0	0	0	508	3	
0	0	0	0	0	508	3	
1	0	0	0	0	508	6	
2	0	0	0	0	508	3	
3	0	0	0	0	505	3	
4	0	0	0	0	506	3	
5	0	0	0	0	509	0	
6	0	0	0	0	505	3	
7	0	0	0	0	507	3	
8	0	0	0	0	508	3	
9	0	0	0	0	507	6	
10	0	0	0	0	505	3	
11	0	0	0	0	505	3	
12	0	0	0	0	506	3	
13	0	0	0	0	507	0	
14	0	0	0	0	508	3	
15	0	0	0	0	508	3	
0	0	0	0	0	507	3	
1	0	0	0	0	507	6	
2	0	0	0	0	504	3	
3	0	0	0	0	505	3	
4	0	0	0	0	507	3	
5	0	0	0	0	506	0	
6	0	0	0	0	507	3	
7	0	0	0	0	505	3	
8	0	0	0	0	509	3	
9	0	0	0	0	508	6	
10	0	0	0	0	507	3	
11	0	0	0	0	506	3	
12	0	0	0	0	507	3	
13	0	0	0	0	508	0	
14	0	0	0	0	508	3	
15	0	0	0	0	510	3	
0	0	0	0	0	507	3	
1	0	0	0	0	508	6	
2	0	0	0	0	505	3	
3	0	0	0	0	506	3	
4	0	0	0	0	504	3	
5	0	0	0	0	506	0	
6	0	0	0	0	505	3	
7	0	0	0	0	506	3	
8	0	0	0	0	505	3	
9	0	0	0	0	505	6	
10	0	0	0	0	505	3	
11	0	0	0	0	508	3	
12	0	0	0	0	509	3	
13	0	0	0	0	507	0	
14	0	0	0	0	508	3	
15	0	0	0	0	508	3	
0	0	0	0	0	507	3	
1	0	0	0	0	508	6	
2	0	0	0	0	508	3	
3	0	0	0	0	505	3	
4	0	0	0	0	506	3	
5	0	0	0	0	508	0	
6	0	0	0	0	506	3	
7	0	0	0	0	508	3	
8	0	0	0	0	508	3	
9	0	0	0	0	508	6	
10	0	0	0	0	506	3	
11	0	0	0	0	506	3	
12	0	0	0	0	507	2	
13	0	0	0	0	505	0	
14	0	0	0	0	507	3	
15	0	0	0	0	506	3	
0	0	0	0	0	505	3	
1	0	0	0	0	507	6	
2	0	0	0	0	507	3	
3	0	0	0	0	506	3	
4	0	0	0	0	506	3	
5	0	0	0	0	507	0	
6	0	0	0	0	505	3	
7	0	0	0	0	505	3	
8	0	0	0	0	508	3	
9	0	0	0	0	507	6	
10	0	0	0	0	508	3	
11	0	0	0	0	508	3	
12	0	0	0	0	506	3	
13	0	0	0	0	506	0	
14	0	0	0	0	507	3	
15	0	0	0	0	507	3	
0	0	0	0	0	507	3	
1	0	0	0	0	505	6	
2	0	0	0	0	507	3	
3	0	0	0	0	504	3	
4	0	0	0	0	507	3	
5	0	0	0	0	507	0	
6	0	0	0	0	508	3	
7	0	0	0	0	505	3	
8	0	0	0	0	506	3	
9	0	0	0	0	506	6	
10	0	0	0	0	508	3	
11	0	0	0	0	505	3	
12	0	0	0	0	508	3	
13	0	0	0	0	506	0	
14	0	0	0	0	506	3	
15	0	0	0	0	507	3	
0	0	0	0	0	506	3	
1	0	0	0	0	506	6	
2	0	0	0	0	506	3	
3	0	0	0	0	506	3	
4	0	0	0	0	507	3	
5	0	0	0	0	506	0	
6	0	0	0	0	507	3	
7	0	0	0	0	508	3	
8	0	0	0	0	508	3	
9	0	0	0	0	506	6	
10	0	0	0	0	507	3	
11	0	0	0	0	506	3	
12	0	0	0	0	508	3	
13	0	0	0	0	510	0	
14	0	0	0	0	508	3	
15	0	0	0	0	508	3	
0	0	0	0	0	505	3	
1	0	0	0	0	507	6	
2	0	0	0	0	506	3	
3	0	0	0	0	508	3	
4	0	0	0	0	506	3	
5	0	0	0	0	509	0	
6	0	0	0	0	505	3	
7	0	0	0	0	505	3	
8	0	0	0	0	505	3	
9	0	0	0	0	505	6	
10	0	0	0	0	507	3	
11	0	0	0	0	504	3	
12	0	0	0	0	505	3	
13	0	0	0	0	508	0	
14	0	0	0	0	509	3	
15	0	0	0	0	507	3	
0	0	0	0	0	507	3	
1	0	0	0	0	507	6	
2	0	0	0	0	507	3	
3	0	0	0	0	508	3	
4	0	0	0	0	507	3	
5	0	0	0	0	506	0	
6	0	0	0	0	507	3	
7	0	0	0	0	505	3	
8	0	0	0	0	506	3	
9	0	0	0	0	506	6	
10	0	0	0	0	506	3	
11	0	0	0	0	507	3	
12	0	0	0	0	505	3	
13	0	0	0	0	507	0	
14	0	0	0	0	507	3	
15	0	0	0	0	507	3	
0	0	0	0	0	504	3	
1	0	0	0	0	505	6	
2	0	0	0	0	505	3	
3	0	0	0	0	506	3	
4	0	0	0	0	507	3	
5	0	0	0	0	506	0	
6	0	0	0	0	507	3	
7	0	0	0	0	508	3	
8	0	0	0	0	508	3	
9	0	0	0	0	508	6	
10	0	0	0	0	506	3	
11	0	0	0	0	507	3	
12	0	0	0	0	505	3	
13	0	0	0	0	505	0	
14	0	0	0	0	505	3	
15	0	0	0	0	508	3	
0	0	0	0	0	508	3	
1	0	0	0	0	506	6	
2	0	0	0	0	505	3	
3	0	0	0	0	507	3	
4	0	0	0	0	506	3	
5	0	0	0	0	508	0	
6	0	0	0	0	507	3	
7	0	0	0	0	507	3	
8	0	0	0	0	507	3	
9	0	0	0	0	508	6	
10	0	0	0	0	508	3	
11	0	0	0	0	506	3	
12	0	0	0	0	506	2	
13	0	0	0	0	506	0	
14	0	0	0	0	508	3	
15	0	0	0	0	508	3	
0	0	0	0	0	508	3	
1	0	0	0	0	505	6	
2	0	0	0	0	507	3	
3	0	0	0	0	507	3	
4	0	0	0	0	508	3	
5	0	0	0	0	507	0	
6	0	0	0	0	505	3	
7	0	0	0	0	507	3	
8	0	0	0	0	506	3	
9	0	0	0	0	509	6	
10	0	0	0	0	508	3	
11	0	0	0	0	508	3	
12	0	0	0	0	506	3	
13	0	0	0	0	505	0	
14	0	0	0	0	505	3	
15	0	0	0	0	505	3	
0	0	0	0	0	509	3	
1	0	0	0	0	507	6	
2	0	0	0	0	509	3	
3	0	0	0	0	507	3	
4	0	0	0	0	507	3	
5	0	0	0	0	507	0	
6	0	0	0	0	507	3	
7	0	0	0	0	508	3	
8	0	0	0	0	504	3	
9	0	0	0	0	507	6	
10	0	0	0	0	508	3	
11	0	0	0	0	505	3	
12	0	0	0	0	505	2	
13	0	0	0	0	506	0	
14	0	0	0	0	505	3	
15	0	0	0	0	507	3	
0	0	0	0	0	508	3	
1	0	0	0	0	508	6	
2	0	0	0	0	509	3	
3	0	0	0	0	507	3	
4	0	0	0	0	505	3	
5	0	0	0	0	506	0	
6	0	0	0	0	508	3	
7	0	0	0	0	507	3	
8	0	0	0	0	507	3	
9	0	0	0	0	506	6	
10	0	0	0	0	507	3	
11	0	0	0	0	506	3	
12	0	0	0	0	506	3	
13	0	0	0	0	506	0	
14	0	0	0	0	507	3	
15	0	0	0	0	506	3	
0	0	0	0	0	507	3	
1	0	0	0	0	506	6	
2	0	0	0	0	507	3	
3	0	0	0	0	506	3	
4	0	0	0	0	508	3	
5	0	0	0	0	508	0	
6	0	0	0	0	507	3	
7	0	0	0	0	508	3	
8	0	0	0	0	508	3	
9	0	0	0	0	508	6	
10	0	0	0	0	507	3	
11	0	0	0	0	508	3	
12	0	0	0	0	508	3	
13	0	0	0	0	506	0	
14	0	0	0	0	508	3	
15	0	0	0	0	507	3	
0	0	0	0	0	507	3	
1	0	0	0	0	507	6	
2	0	0	0	0	506	3	
3	0	0	0	0	507	3	
4	0	0	0	0	506	3	
5	0	0	0	0	505	0	
6	0	0	0	0	506	3	
7	0	0	0	0	506	3	
8	0	0	0	0	507	3	
9	0	0	0	0	507	6	
10	0	0	0	0	507	3	
11	0	0	0	0	507	3	
12	0	0	0	0	506	2	
13	0	0	0	0	509	0	
14	0	0	0	0	506	3	
15	0	0	0	0	506	3	
0	0	0	0	0	506	3	
1	0	0	0	0	507	6	
2	0	0	0	0	507	3	
3	0	0	0	0	506	3	
4	0	0	0	0	504	3	
5	0	0	0	0	507	0	
6	0	0	0	0	507	3	
7	0	0	0	0	505	3	
8	0	0	0	0	505	3	
9	0	0	0	0	509	6	
10	0	0	0	0	508	3	
11	0	0	0	0	507	3	
12	0	0	0	0	507	3	
13	0	0	0	0	507	0	
14	0	0	0	0	508	3	
15	0	0	0	0	508	3	
0	0	0	0	0	505	3	
1	0	0	0	0	507	6	
2	0	0	0	0	507	3	
3	0	0	0	0	507	3	
4	0	0	0	0	506	3	
5	0	0	0	0	505	0	
6	0	0	0	0	507	3	
7	0	0	0	0	506	3	
8	0	0	0	0	507	3	
9	0	0	0	0	508	6	
10	0	0	0	0	507	3	
11	0	0	0	0	507	3	
12	0	0	0	0	507	3	
13	0	0	0	0	508	0	
14	0	0	0	0	508	3	
15	0	0	0	0	507	3	
0	0	0	0	0	508	3	
1	0	0	0	0	507	6	
2	0	0	0	0	506	3	
3	0	0	0	0	505	3	
4	0	0	0	0	507	3	
5	0	0	0	0	507	0	
6	0	0	0	0	508	3	
7	0	0	0	0	506	3	
8	0	0	0	0	505	3	
9	0	0	0	0	506	6	
10	0	0	0	0	505	3	
11	0	0	0	0	509	3	
12	0	0	0	0	508	3	
13	0	0	0	0	507	0	
14	0	0	0	0	505	3	
15	0	0	0	0	507	3	
0	0	0	0	0	506	3	
1	0	0	0	0	507	6	
2	0	0	0	0	504	3	
3	0	0	0	0	508	3	
4	0	0	0	0	506	3	
5	0	0	0	0	507	0	
6	0	0	0	0	507	3	
7	0	0	0	0	506	3	
8	0	0	0	0	507	3	
9	0	0	0	0	506	6	
10	0	0	0	0	508	3	
11	0	0	0	0	508	3	
12	0	0	0	0	506	3	
13	0	0	0	0	508	0	
14	0	0	0	0	506	3	
15	0	0	0	0	505	3	
0	0	0	0	0	505	3	
1	0	0	0	0	505	6	
2	0	0	0	0	507	3	
3	0	0	0	0	506	3	
4	0	0	0	0	507	3	
5	0	0	0	0	508	0	
6	0	0	0	0	507	3	
7	0	0	0	0	506	3	
8	0	0	0	0	510	3	
9	0	0	0	0	507	6	
10	0	0	0	0	505	3	
11	0	0	0	0	508	3	
12	0	0	0	0	506	2	
13	0	0	0	0	506	0	
14	0	0	0	0	508	3	
15	0	0	0	0	510	3	
0	0	0	0	0	507	3	
1	0	0	0	0	506	6	
2	0	0	0	0	508	3	
3	0	0	0	0	507	3	
4	0	0	0	0	506	2	
5	0	0	0	0	506	0	
6	0	0	0	0	507	3	
7	0	0	0	0	508	3	
8	0	0	0	0	505	3	
9	0	0	0	0	505	6	
10	0	0	0	0	506	3	
11	0	0	0	0	507	3	
12	0	0	0	0	508	3	
13	0	0	0	0	506	0	
14	0	0	0	0	508	3	
15	0	0	0	0	506	3	
0	0	0	0	0	508	3	
1	0	0	0	0	506	6	
2	0	0	0	0	507	3	
3	0	0	0	0	507	3	
4	0	0	0	0	506	3	
5	0	0	0	0	508	0	
6	0	0	0	0	507	3	
7	0	0	0	0	505	3	
8	0	0	0	0	506	3	
9	0	0	0	0	508	6	
10	0	0	0	0	507	3	
11	0	0	0	0	507	3	
12	0	0	0	0	507	3	
13	0	0	0	0	510	0	
14	0	0	0	0	507	3	
15	0	0	0	0	505	3	
0	0	0	0	0	507	3	
1	0	0	0	0	506	6	
2	0	0	0	0	507	3	
3	0	0	0	0	508	3	
4	0	0	0	0	508	3	
5	0	0	0	0	505	0	
6	0	0	0	0	506	3	
7	0	0	0	0	505	3	
8	0	0	0	0	508	3	
9	0	0	0	0	507	6	
10	0	0	0	0	505	3	
11	0	0	0	0	507	3	
12	0	0	0	0	508	3	
13	0	0	0	0	505	0	
14	0	0	0	0	507	3	
15	0	0	0	0	506	3	
0	0	0	0	0	506	3	
1	0	0	0	0	507	6	
2	0	0	0	0	508	3	
3	0	0	0	0	507	3	
4	0	0	0	0	507	3	
5	0	0	0	0	507	0	
6	0	0	0	0	506	3	
7	0	0	0	0	505	3	
8	0	0	0	0	508	3	
9	0	0	0	0	506	6	
10	0	0	0	0	507	3	
11	0	0	0	0	507	3	
12	0	0	0	0	508	3	
13	0	0	0	0	507	0	
14	0	0	0	0	507	3	
15	0	0	0	0	505	3	
0	0	0	0	0	507	3	
1	0	0	0	0	507	6	
2	0	0	0	0	506	3	
3	0	0	0	0	504	3	
4	0	0	0	0	506	3	
5	0	0	0	0	506	0	
6	0	0	0	0	506	3	
7	0	0	0	0	508	3	
8	0	0	0	0	507	3	
9	0	0	0	0	506	6	
10	0	0	0	0	507	3	
11	0	0	0	0	507	3	
12	0	0	0	0	507	3	
13	0	0	0	0	506	0	
14	0	0	0	0	507	3	
15	0	0	0	0	507	3	
0	0	0	0	0	507	3	
1	0	0	0	0	505	6	
2	0	0	0	0	505	3	
3	0	0	0	0	504	3	
4	0	0	0	0	505	3	
5	0	0	0	0	509	0	
6	0	0	0	0	506	3	
7	0	0	0	0	507	3	
8	0	0	0	0	507	3	
9	0	0	0	0	508	6	
10	0	0	0	0	509	3	
11	0	0	0	0	508	3	
12	0	0	0	0	509	3	
13	0	0	0	0	506	0	
14	0	0	0	0	505	3	
15	0	0	0	0	507	3	
0	0	0	0	0	506	3	
1	0	0	0	0	505	6	
2	0	0	0	0	508	3	
3	0	0	0	0	508	3	
4	0	0	0	0	508	3	
5	0	0	0	0	507	0	
6	0	0	0	0	509	3	
7	0	0	0	0	508	3	
8	0	0	0	0	505	3	
9	0	0	0	0	503	6	
10	0	0	0	0	506	3	
11	0	0	0	0	506	3	
12	0	0	0	0	508	3	
13	0	0	0	0	506	0	
14	0	0	0	0	507	3	
15	0	0	0	0	506	3	
0	0	0	0	0	507	3	
1	0	0	0	0	507	6	
2	0	0	0	0	503	3	
3	0	0	0	0	505	3	
4	0	0	0	0	508	3	
5	0	0	0	0	507	0	
6	0	0	0	0	507	3	
7	0	0	0	0	509	3	
8	0	0	0	0	507	3	
9	0	0	0	0	505	6	
10	0	0	0	0	507	3	
11	0	0	0	0	508	3	
12	0	0	0	0	505	3	
13	0	0	0	0	507	0	
14	0	0	0	0	508	3	
15	0	0	0	0	508	3	
0	0	0	0	0	505	3	
1	0	0	0	0	507	6	
2	0	0	0	0	504	3	
3	0	0	0	0	506	3	
4	0	0	0	0	505	3	
5	0	0	0	0	508	0	
6	0	0	0	0	506	3	
7	0	0	0	0	506	3	
8	0	0	0	0	507	3	
9	0	0	0	0	506	6	
10	0	0	0	0	509	3	
11	0	0	0	0	508	3	
12	0	0	0	0	506	3	
13	0	0	0	0	506	0	
14	0	0	0	0	507	3	
15	0	0	0	0	507	3	
0	0	0	0	0	507	3	
1	0	0	0	0	507	6	
2	0	0	0	0	506	3	
3	0	0	0	0	507	3	
4	0	0	0	0	508	3	
5	0	0	0	0	509	0	
6	0	0	0	0	507	3	
7	0	0	0	0	508	3	
8	0	0	0	0	508	3	
9	0	0	0	0	507	6	
10	0	0	0	0	506	3	
11	0	0	0	0	506	3	
12	0	0	0	0	507	3	
13	0	0	0	0	507	0	
14	0	0	0	0	506	3	
15	0	0	0	0	507	3	
0	0	0	0	0	506	3	
1	0	0	0	0	507	6	
2	0	0	0	0	507	3	
3	0	0	0	0	508	3	
4	0	0	0	0	506	3	
5	0	0	0	0	505	0	
6	0	0	0	0	506	3	
7	0	0	0	0	505	3	
8	0	0	0	0	505	3	
9	0	0	0	0	506	6	
10	0	0	0	0	508	3	
11	0	0	0	0	507	3	
12	0	0	0	0	506	3	
13	0	0	0	0	506	0	
14	0	0	0	0	508	3	
15	0	0	0	0	508	3	
0	0	0	0	0	506	3	
1	0	0	0	0	508	6	
2	0	0	0	0	508	3	
3	0	0	0	0	505	3	
4	0	0	0	0	508	3	
5	0	0	0	0	507	0	
6	0	0	0	0	506	3	
7	0	0	0	0	505	3	
8	0	0	0	0	507	3	
9	0	0	0	0	507	6	
10	0	0	0	0	507	3	
11	0	0	0	0	507	3	
12	0	0	0	0	507	3	
13	0	0	0	0	507	0	
14	0	0	0	0	509	3	
15	0	0	0	0	506	3	
0	0	0	0	0	506	3	
1	0	0	0	0	508	6	
2	0	0	0	0	507	3	
3	0	0	0	0	506	3	
4	0	0	0	0	508	3	
5	0	0	0	0	505	0	
6	0	0	0	0	507	3	
7	0	0	0	0	508	3	
8	0	0	0	0	506	3	
9	0	0	0	0	507	6	
10	0	0	0	0	506	3	
11	0	0	0	0	507	3	
12	0	0	0	0	505	3	
13	0	0	0	0	508	0	
14	0	0	0	0	507	3	
15	0	0	0	0	505	3	
0	0	0	0	0	506	3	
1	0	0	0	0	507	6	
2	0	0	0	0	507	3	
3	0	0	0	0	507	3	
4	0	0	0	0	506	3	
5	0	0	0	0	505	0	
6	0	0	0	0	507	3	
7	0	0	0	0	508	3	
8	0	0	0	0	510	3	
9	0	0	0	0	506	6	
10	0	0	0	0	506	3	
11	0	0	0	0	508	3	
12	0	0	0	0	506	3	
13	0	0	0	0	505	0	
14	0	0	0	0	506	3	
15	0	0	0	0	506	3	
0	0	0	0	0	506	3	
1	0	0	0	0	508	6	
2	0	0	0	0	505	3	
3	0	0	0	0	506	3	
4	0	0	0	0	508	2	
5	0	0	0	0	507	0	
6	0	0	0	0	507	3	
7	0	0	0	0	506	3	
8	0	0	0	0	508	3	
9	0	0	0	0	508	6	
10	0	0	0	0	506	3	
11	0	0	0	0	507	3	
12	0	0	0	0	507	3	
13	0	0	0	0	507	0	
14	0	0	0	0	505	3	
15	0	0	0	0	505	3	
0	0	0	0	0	508	3	
1	0	0	0	0	508	6	
2	0	0	0	0	507	3	
3	0	0	0	0	505	3	
4	0	0	0	0	506	3	
5	0	0	0	0	508	0	
6	0	0	0	0	508	3	
7	0	0	0	0	508	3	
8	0	0	0	0	508	3	
9	0	0	0	0	507	6	
10	0	0	0	0	506	3	
11	0	0	0	0	507	3	
12	0	0	0	0	507	3	
13	0	0	0	0	506	0	
14	0	0	0	0	506	3	
15	0	0	0	0	508	3	
0	0	0	0	0	507	3	
1	0	0	0	0	506	6	
2	0	0	0	0	505	3	
3	0	0	0	0	507	3	
4	0	0	0	0	506	3	
5	0	0	0	0	508	0	
6	0	0	0	0	506	3	
7	0	0	0	0	506	3	
8	0	0	0	0	505	3	
9	0	0	0	0	507	6	
10	0	0	0	0	508	3	
11	0	0	0	0	506	3	
12	0	0	0	0	509	3	
13	0	0	0	0	504	0	
14	0	0	0	0	504	3	
15	0	0	0	0	506	3	
0	0	0	0	0	508	3	
1	0	0	0	0	507	6	
2	0	0	0	0	509	3	
3	0	0	0	0	509	3	
4	0	0	0	0	507	3	
5	0	0	0	0	507	0	
6	0	0	0	0	506	3	
7	0	0	0	0	507	3	
8	0	0	0	0	506	3	
9	0	0	0	0	507	6	
10	0	0	0	0	507	3	
11	0	0	0	0	505	3	
12	0	0	0	0	505	3	
13	0	0	0	0	509	0	
14	0	0	0	0	507	3	
15	0	0	0	0	507	3	
0	0	0	0	0	507	3	
1	0	0	0	0	505	6	
2	0	0	0	0	506	3	
3	0	0	0	0	505	3	
4	0	0	0	0	507	3	
5	0	0	0	0	508	0	
6	0	0	0	0	508	3	
7	0	0	0	0	507	3	
8	0	0	0	0	509	3	
9	0	0	0	0	508	6	
10	0	0	0	0	507	3	
11	0	0	0	0	506	3	
12	0	0	0	0	504	3	
13	0	0	0	0	506	0	
14	0	0	0	0	508	3	
15	0	0	0	0	506	3	
0	0	0	0	0	507	3	
1	0	0	0	0	505	6	
2	0	0	0	0	507	3	
3	0	0	0	0	507	3	
4	0	0	0	0	509	3	
5	0	0	0	0	505	0	
6	0	0	0	0	503	3	
7	0	0	0	0	508	3	
8	0	0	0	0	504	3	
9	0	0	0	0	507	6	
10	0	0	0	0	504	3	
11	0	0	0	0	507	3	
12	0	0	0	0	510	3	
13	0	0	0	0	505	0	
14	0	0	0	0	507	3	
15	0	0	0	0	508	3	
0	0	0	0	0	508	3	
1	0	0	0	0	507	6	
2	0	0	0	0	506	3	
3	0	0	0	0	506	3	
4	0	0	0	0	506	3	
5	0	0	0	0	507	0	
6	0	0	0	0	508	3	
7	0	0	0	0	508	3	
8	0	0	0	0	507	3	
9	0	0	0	0	505	6	
10	0	0	0	0	509	3	
11	0	0	0	0	506	3	
12	0	0	0	0	506	3	
13	0	0	0	0	507	0	
14	0	0	0	0	507	3	
15	0	0	0	0	505	3	
0	0	0	0	0	507	3	
1	0	0	0	0	508	6	
2	0	0	0	0	508	3	
3	0	0	0	0	507	3	
4	0	0	0	0	504	3	
5	0	0	0	0	505	0	
6	0	0	0	0	505	3	
7	0	0	0	0	507	3	
8	0	0	0	0	507	3	
9	0	0	0	0	508	6	
10	0	0	0	0	506	3	
11	0	0	0	0	505	3	
12	0	0	0	0	508	3	
13	0	0	0	0	506	0	
14	0	0	0	0	506	3	
15	0	0	0	0	507	3	
0	0	0	0	0	507	3	
1	0	0	0	0	506	6	
2	0	0	0	0	506	3	
3	0	0	0	0	507	3	
4	0	0	0	0	509	3	
5	0	0	0	0	510	0	
6	0	0	0	0	507	3	
7	0	0	0	0	510	3	
8	0	0	0	0	506	3	
9	0	0	0	0	507	6	
10	0	0	0	0	507	3	
11	0	0	0	0	507	3	
12	0	0	0	0	505	3	
13	0	0	0	0	507	0	
14	0	0	0	0	505	3	
15	0	0	0	0	507	3	
0	0	0	0	0	505	3	
1	0	0	0	0	508	6	
2	0	0	0	0	505	3	
3	0	0	0	0	506	3	
4	0	0	0	0	508	3	
5	0	0	0	0	507	0	
6	0	0	0	0	505	3	
7	0	0	0	0	507	3	
8	0	0	0	0	507	3	
9	0	0	0	0	508	6	
10	0	0	0	0	508	3	
11	0	0	0	0	507	3	
12	0	0	0	0	508	3	
13	0	0	0	0	506	0	
14	0	0	0	0	505	3	
15	0	0	0	0	505	3	
0	0	0	0	0	508	3	
1	0	0	0	0	506	6	
2	0	0	0	0	505	3	
3	0	0	0	0	507	3	
4	0	0	0	0	508	3	
5	0	0	0	0	508	0	
6	0	0	0	0	505	3	
7	0	0	0	0	509	3	
8	0	0	0	0	507	3	
9	0	0	0	0	507	6	
10	0	0	0	0	505	3	
11	0	0	0	0	507	3	
12	0	0	0	0	510	3	
13	0	0	0	0	507	0	
14	0	0	0	0	505	3	
15	0	0	0	0	507	3	
0	0	0	0	0	507	3	
1	0	0	0	0	506	6	
2	0	0	0	0	508	3	
3	0	0	0	0	508	3	
4	0	0	0	0	504	3	
5	0	0	0	0	507	0	
6	0	0	0	0	505	3	
7	0	0	0	0	506	3	
8	0	0	0	0	504	3	
9	0	0	0	0	506	6	
10	0	0	0	0	508	3	
11	0	0	0	0	507	3	
12	0	0	0	0	508	3	
13	0	0	0	0	507	0	
14	0	0	0	0	507	3	
15	0	0	0	0	506	3	
0	0	0	0	0	506	3	
1	0	0	0	0	504	6	
2	0	0	0	0	507	3	
3	0	0	0	0	508	3	
4	0	0	0	0	506	3	
5	0	0	0	0	507	0	
6	0	0	0	0	508	3	
7	0	0	0	0	505	3	
8	0	0	0	0	507	3	
9	0	0	0	0	507	6	
10	0	0	0	0	507	3	
11	0	0	0	0	505	3	
12	0	0	0	0	507	3	
13	0	0	0	0	508	0	
14	0	0	0	0	507	3	
15	0	0	0	0	505	3	
0	0	0	0	0	508	3	
1	0	0	0	0	507	6	
2	0	0	0	0	506	3	
3	0	0	0	0	507	3	
4	0	0	0	0	507	3	
5	0	0	0	0	507	0	
6	0	0	0	0	504	3	
7	0	0	0	0	504	3	
8	0	0	0	0	507	3	
9	0	0	0	0	506	6	
10	0	0	0	0	507	3	
11	0	0	0	0	507	3	
12	0	0	0	0	507	3	
13	0	0	0	0	507	0	
14	0	0	0	0	508	3	
15	0	0	0	0	506	3	
0	0	0	0	0	507	3	
1	0	0	0	0	507	6	
2	0	0	0	0	507	3	
3	0	0	0	0	507	3	
4	0	0	0	0	508	3	
5	0	0	0	0	506	0	
6	0	0	0	0	504	3	
7	0	0	0	0	506	3	
8	0	0	0	0	507	3	
9	0	0	0	0	505	6	
10	0	0	0	0	507	3	
11	0	0	0	0	507	3	
12	0	0	0	0	506	3	
13	0	0	0	0	507	0	
14	0	0	0	0	507	3	
15	0	0	0	0	508	3	
0	0	0	0	0	510	3	
1	0	0	0	0	508	6	
2	0	0	0	0	506	3	
3	0	0	0	0	505	3	
4	0	0	0	0	505	3	
5	0	0	0	0	507	0	
6	0	0	0	0	507	3	
7	0	0	0	0	506	3	
8	0	0	0	0	507	3	
9	0	0	0	0	506	6	
10	0	0	0	0	505	3	
11	0	0	0	0	505	3	
12	0	0	0	0	507	3	
13	0	0	0	0	509	0	
14	0	0	0	0	507	3	
15	0	0	0	0	505	3	
0	0	0	0	0	505	3	
1	0	0	0	0	507	6	
2	0	0	0	0	505	3	
3	0	0	0	0	507	3	
4	0	0	0	0	507	3	
5	0	0	0	0	506	0	
6	0	0	0	0	508	3	
7	0	0	0	0	507	3	
8	0	0	0	0	505	3	
9	0	0	0	0	505	6	
10	0	0	0	0	508	3	
11	0	0	0	0	508	3	
12	0	0	0	0	507	3	
13	0	0	0	0	506	0	
14	0	0	0	0	507	3	
15	0	0	0	0	506	3	
0	0	0	0	0	507	3	
1	0	0	0	0	509	6	
2	0	0	0	0	507	3	
3	0	0	0	0	507	3	
4	0	0	0	0	507	3	
5	0	0	0	0	506	0	
6	0	0	0	0	507	3	
7	0	0	0	0	507	3	
8	0	0	0	0	507	3	
9	0	0	0	0	507	6	
10	0	0	0	0	507	3	
11	0	0	0	0	505	3	
12	0	0	0	0	507	3	
13	0	0	0	0	506	0	
14	0	0	0	0	507	3	
15	0	0	0	0	508	3	
0	0	0	0	0	508	3	
1	0	0	0	0	507	6	
2	0	0	0	0	506	3	
3	0	0	0	0	507	3	
4	0	0	0	0	508	3	
5	0	0	0	0	505	0	
6	0	0	0	0	507	3	
7	0	0	0	0	507	3	
8	0	0	0	0	506	3	
9	0	0	0	0	505	6	
10	0	0	0	0	506	3	
11	0	0	0	0	507	3	
12	0	0	0	0	507	3	
13	0	0	0	0	507	0	
14	0	0	0	0	506	3	
15	0	0	0	0	507	3	
0	0	0	0	0	508	3	
1	0	0	0	0	505	6	
2	0	0	0	0	506	3	
3	0	0	0	0	507	3	
4	0	0	0	0	508	3	
5	0	0	0	0	506	0	
6	0	0	0	0	508	3	
7	0	0	0	0	506	3	
8	0	0	0	0	505	3	
9	0	0	0	0	506	6	
10	0	0	0	0	508	3	
11	0	0	0	0	508	3	
12	0	0	0	0	507	3	
13	0	0	0	0	507	0	
14	0	0	0	0	507	3	
15	0	0	0	0	505	3	
0	0	0	0	0	505	3	
1	0	0	0	0	504	6	
2	0	0	0	0	506	3	
3	0	0	0	0	505	3	
4	0	0	0	0	505	3	
5	0	0	0	0	508	0	
6	0	0	0	0	507	3	
7	0	0	0	0	508	3	
8	0	0	0	0	508	3	
9	0	0	0	0	509	6	
10	0	0	0	0	508	3	
11	0	0	0	0	507	3	
12	0	0	0	0	506	3	
13	0	0	0	0	506	0	
14	0	0	0	0	506	3	
15	0	0	0	0	508	3	
0	0	0	0	0	507	3	
1	0	0	0	0	508	6	
2	0	0	0	0	507	3	
3	0	0	0	0	506	3	
4	0	0	0	0	505	3	
5	0	0	0	0	505	0	
6	0	0	0	0	507	3	
7	0	0	0	0	508	3	
8	0	0	0	0	508	3	
9	0	0	0	0	507	6	
10	0	0	0	0	506	3	
11	0	0	0	0	506	3	
12	0	0	0	0	507	3	
13	0	0	0	0	507	0	
14	0	0	0	0	508	3	
15	0	0	0	0	507	3	
0	0	0	0	0	508	3	
1	0	0	0	0	507	6	
2	0	0	0	0	506	3	
3	0	0	0	0	507	3	
4	0	0	0	0	506	3	
5	0	0	0	0	508	0	
6	0	0	0	0	507	3	
7	0	0	0	0	506	3	
8	0	0	0	0	506	3	
9	0	0	0	0	507	6	
10	0	0	0	0	506	3	
11	0	0	0	0	507	3	
12	0	0	0	0	508	3	
13	0	0	0	0	505	0	
14	0	0	0	0	505	3	
15	0	0	0	0	506	3	
0	0	0	0	0	508	3	
1	0	0	0	0	506	6	
2	0	0	0	0	508	3	
3	0	0	0	0	507	3	
4	0	0	0	0	507	3	
5	0	0	0	0	507	0	
6	0	0	0	0	505	3	
7	0	0	0	0	507	3	
8	0	0	0	0	507	3	
9	0	0	0	0	507	6	
10	0	0	0	0	504	3	
11	0	0	0	0	510	3	
12	0	0	0	0	507	3	
13	0	0	0	0	507	0	
14	0	0	0	0	507	3	
15	0	0	0	0	506	3	
0	0	0	0	0	506	3	
1	0	0	0	0	507	6	
2	0	0	0	0	507	3	
3	0	0	0	0	507	3	
4	0	0	0	0	506	3	
5	0	0	0	0	506	0	
6	0	0	0	0	508	3	
7	0	0	0	0	508	3	
8	0	0	0	0	509	3	
9	0	0	0	0	506	6	
10	0	0	0	0	505	3	
11	0	0	0	0	506	3	
12	0	0	0	0	507	3	
13	0	0	0	0	508	0	
14	0	0	0	0	508	3	
15	0	0	0	0	504	3	
0	0	0	0	0	507	3	
1	0	0	0	0	505	6	
2	0	0	0	0	507	3	
3	0	0	0	0	506	3	
4	0	0	0	0	507	3	
5	0	0	0	0	507	0	
6	0	0	0	0	506	3	
7	0	0	0	0	508	3	
8	0	0	0	0	507	3	
9	0	0	0	0	505	6	
10	0	0	0	0	506	3	
11	0	0	0	0	508	3	
12	0	0	0	0	508	3	
13	0	0	0	0	507	0	
14	0	0	0	0	505	3	
15	0	0	0	0	506	3	
0	0	0	0	0	506	3	
1	0	0	0	0	508	6	
2	0	0	0	0	507	3	
3	0	0	0	0	506	3	
4	0	0	0	0	505	3	
5	0	0	0	0	507	0	
6	0	0	0	0	507	3	
7	0	0	0	0	507	3	
8	0	0	0	0	505	3	
9	0	0	0	0	504	6	
10	0	0	0	0	505	3	
11	0	0	0	0	504	3	
12	0	0	0	0	508	3	
13	0	0	0	0	505	0	
14	0	0	0	0	505	3	
15	0	0	0	0	506	3	
0	0	0	0	0	506	3	
1	0	0	0	0	507	6	
2	0	0	0	0	507	3	
3	0	0	0	0	508	3	
4	0	0	0	0	506	3	
5	0	0	0	0	508	0	
6	0	0	0	0	508	3	
7	0	0	0	0	508	3	
8	0	0	0	0	510	3	
9	0	0	0	0	506	6	
10	0	0	0	0	507	3	
11	0	0	0	0	508	3	
12	0	0	0	0	505	3	
13	0	0	0	0	505	0	
14	0	0	0	0	505	3	
15	0	0	0	0	507	3	
0	0	0	0	0	507	3	
1	0	0	0	0	508	6	
2	0	0	0	0	507	3	
3	0	0	0	0	508	3	
4	0	0	0	0	505	3	
5	0	0	0	0	505	0	
6	0	0	0	0	508	3	
7	0	0	0	0	507	3	
8	0	0	0	0	506	3	
9	0	0	0	0	510	6	
10	0	0	0	0	506	3	
11	0	0	0	0	506	3	
12	0	0	0	0	507	3	
13	0	0	0	0	506	0	
14	0	0	0	0	508	3	
15	0	0	0	0	505	3	
0	0	0	0	0	505	3	
1	0	0	0	0	506	6	
2	0	0	0	0	507	3	
3	0	0	0	0	506	3	
4	0	0	0	0	505	3	
5	0	0	0	0	507	0	
6	0	0	0	0	508	3	
7	0	0	0	0	508	3	
8	0	0	0	0	507	3	
9	0	0	0	0	507	6	
10	0	0	0	0	506	3	
11	0	0	0	0	508	3	
12	0	0	0	0	508	3	
13	0	0	0	0	507	0	
14	0	0	0	0	506	3	
15	0	0	0	0	507	3	
0	0	0	0	0	504	3	
1	0	0	0	0	506	6	
2	0	0	0	0	508	3	
3	0	0	0	0	508	3	
4	0	0	0	0	506	3	
5	0	0	0	0	509	0	
6	0	0	0	0	507	3	
7	0	0	0	0	505	3	
8	0	0	0	0	507	3	
9	0	0	0	0	505	6	
10	0	0	0	0	507	3	
11	0	0	0	0	505	3	
12	0	0	0	0	507	3	
13	0	0	0	0	508	0	
14	0	0	0	0	504	3	
15	0	0	0	0	507	3	
0	0	0	0	0	507	3	
1	0	0	0	0	508	6	
2	0	0	0	0	509	3	
3	0	0	0	0	507	3	
4	0	0	0	0	507	3	
5	0	0	0	0	506	0	
6	0	0	0	0	505	3	
7	0	0	0	0	507	3	
8	0	0	0	0	506	3	
9	0	0	0	0	507	6	
10	0	0	0	0	508	3	
11	0	0	0	0	508	3	
12	0	0	0	0	507	3	
13	0	0	0	0	504	0	
14	0	0	0	0	505	3	
15	0	0	0	0	506	3	
0	0	0	0	0	504	3	
1	0	0	0	0	507	6	
2	0	0	0	0	507	3	
3	0	0	0	0	509	3	
4	0	0	0	0	508	3	
5	0	0	0	0	507	0	
6	0	0	0	0	507	3	
7	0	0	0	0	507	3	
8	0	0	0	0	507	3	
9	0	0	0	0	507	6	
10	0	0	0	0	506	3	
11	0	0	0	0	507	3	
12	0	0	0	0	508	3	
13	0	0	0	0	506	0	
14	0	0	0	0	507	3	
15	0	0	0	0	506	3	
0	0	0	0	0	505	3	
1	0	0	0	0	508	6	
2	0	0	0	0	509	3	
3	0	0	0	0	506	3	
4	0	0	0	0	507	3	
5	0	0	0	0	509	0	
6	0	0	0	0	508	3	
7	0	0	0	0	506	3	
8	0	0	0	0	507	3	
9	0	0	0	0	507	6	
10	0	0	0	0	506	3	
11	0	0	0	0	507	3	
12	0	0	0	0	505	3	
13	0	0	0	0	506	0	
14	0	0	0	0	505	3	
15	0	0	0	0	506	3	
0	0	0	0	0	505	3	
1	0	0	0	0	506	6	
2	0	0	0	0	507	3	
3	0	0	0	0	506	3	
4	0	0	0	0	507	3	
5	0	0	0	0	505	0	
6	0	0	0	0	508	3	
7	0	0	0	0	508	3	
8	0	0	0	0	506	3	
9	0	0	0	0	509	6	
10	0	0	0	0	508	3	
11	0	0	0	0	507	3	
12	0	0	0	0	506	3	
13	0	0	0	0	507	0	
14	0	0	0	0	507	3	
15	0	0	0	0	508	3	
0	0	0	0	0	507	3	
1	0	0	0	0	508	6	
2	0	0	0	0	505	3	
3	0	0	0	0	507	3	
4	0	0	0	0	507	3	
5	0	0	0	0	508	0	
6	0	0	0	0	507	3	
7	0	0	0	0	507	3	
8	0	0	0	0	508	3	
9	0	0	0	0	506	6	
10	0	0	0	0	508	3	
11	0	0	0	0	508	3	
12	0	0	0	0	507	3	
13	0	0	0	0	507	0	
14	0	0	0	0	507	3	
15	0	0	0	0	506	3	
0	0	0	0	0	506	3	
1	0	0	0	0	507	6	
2	0	0	0	0	504	3	
3	0	0	0	0	506	3	
4	0	0	0	0	507	3	
5	0	0	0	0	505	0	
6	0	0	0	0	505	3	
7	0	0	0	0	508	3	
8	0	0	0	0	508	3	
9	0	0	0	0	508	6	
10	0	0	0	0	506	3	
11	0	0	0	0	508	3	
12	0	0	0	0	506	3	
13	0	0	0	0	507	0	
14	0	0	0	0	506	3	
15	0	0	0	0	506	3	
0	0	0	0	0	505	3	
1	0	0	0	0	508	6	
2	0	0	0	0	508	3	
3	0	0	0	0	505	3	
4	0	0	0	0	507	3	
5	0	0	0	0	506	0	
6	0	0	0	0	506	3	
7	0	0	0	0	505	3	
8	0	0	0	0	506	3	
9	0	0	0	0	505	6	
10	0	0	0	0	506	3	
11	0	0	0	0	505	3	
12	0	0	0	0	504	3	
13	0	0	0	0	507	0	
14	0	0	0	0	508	3	
15	0	0	0	0	507	3	
0	0	0	0	0	509	3	
1	0	0	0	0	507	6	
2	0	0	0	0	508	3	
3	0	0	0	0	505	3	
4	0	0	0	0	504	3	
5	0	0	0	0	506	0	
6	0	0	0	0	504	3	
7	0	0	0	0	506	3	
8	0	0	0	0	507	3	
9	0	0	0	0	508	6	
10	0	0	0	0	507	3	
11	0	0	0	0	507	3	
12	0	0	0	0	508	3	
13	0	0	0	0	505	0	
14	0	0	0	0	505	3	
15	0	0	0	0	507	3	
0	0	0	0	0	506	3	
1	0	0	0	0	507	6	
2	0	0	0	0	506	3	
3	0	0	0	0	508	3	
4	0	0	0	0	507	3	
5	0	0	0	0	508	0	
6	0	0	0	0	508	3	
7	0	0	0	0	507	3	
8	0	0	0	0	505	3	
9	0	0	0	0	505	6	
10	0	0	0	0	508	3	
11	0	0	0	0	508	3	
12	0	0	0	0	509	3	
13	0	0	0	0	506	0	
14	0	0	0	0	504	3	
15	0	0	0	0	504	3	
0	0	0	0	0	508	3	
1	0	0	0	0	507	6	
2	0	0	0	0	510	3	
3	0	0	0	0	507	3	
4	0	0	0	0	507	3	
5	0	0	0	0	504	0	
6	0	0	0	0	506	3	
7	0	0	0	0	508	3	
8	0	0	0	0	507	3	
9	0	0	0	0	506	6	
10	0	0	0	0	505	3	
11	0	0	0	0	506	3	
12	0	0	0	0	505	3	
13	0	0	0	0	504	0	
14	0	0	0	0	506	3	
15	0	0	0	0	505	3	
0	0	0	0	0	508	3	
1	0	0	0	0	511	6	
2	0	0	0	0	510	3	
3	0	0	0	0	507	3	
4	0	0	0	0	508	3	
5	0	0	0	0	507	0	
6	0	0	0	0	504	3	
7	0	0	0	0	505	3	
8	0	0	0	0	508	3	
9	0	0	0	0	508	6	
10	0	0	0	0	509	3	
11	0	0	0	0	508	3	
12	0	0	0	0	507	3	
13	0	0	0	0	505	0	
14	0	0	0	0	508	3	
15	0	0	0	0	506	3	
0	0	0	0	0	505	3	
1	0	0	0	0	506	6	
2	0	0	0	0	508	3	
3	0	0	0	0	507	3	
4	0	0	0	0	506	3	
5	0	0	0	0	507	0	
6	0	0	0	0	507	3	
7	0	0	0	0	504	3	
8	0	0	0	0	505	3	
9	0	0	0	0	506	6	
10	0	0	0	0	507	3	
11	0	0	0	0	508	3	
12	0	0	0	0	508	3	
13	0	0	0	0	505	0	
14	0	0	0	0	506	3	
15	0	0	0	0	508	3	
0	0	0	0	0	508	3	
1	0	0	0	0	508	6	
2	0	0	0	0	507	3	
3	0	0	0	0	507	3	
4	0	0	0	0	507	3	
5	0	0	0	0	506	0	
6	0	0	0	0	506	3	
7	0	0	0	0	505	3	
8	0	0	0	0	505	3	
9	0	0	0	0	507	6	
10	0	0	0	0	507	3	
11	0	0	0	0	505	3	
12	0	0	0	0	508	3	
13	0	0	0	0	508	0	
14	0	0	0	0	507	3	
15	0	0	0	0	508	3	
0	0	0	0	0	509	3	
1	0	0	0	0	509	6	
2	0	0	0	0	505	3	
3	0	0	0	0	505	3	
4	0	0	0	0	508	3	
5	0	0	0	0	506	0	
6	0	0	0	0	506	3	
7	0	0	0	0	507	3	
8	0	0	0	0	506	3	
9	0	0	0	0	507	6	
10	0	0	0	0	504	3	
11	0	0	0	0	507	3	
12	0	0	0	0	507	3	
13	0	0	0	0	507	0	
14	0	0	0	0	505	3	
15	0	0	0	0	509	3	
0	0	0	0	0	509	3	
1	0	0	0	0	507	6	
2	0	0	0	0	507	3	
3	0	0	0	0	505	3	
4	0	0	0	0	507	2	
5	0	0	0	0	507	0	
6	0	0	0	0	507	3	
7	0	0	0	0	506	3	
8	0	0	0	0	505	3	
9	0	0	0	0	506	6	
10	0	0	0	0	507	3	
11	0	0	0	0	507	3	
12	0	0	0	0	506	3	
13	0	0	0	0	507	0	
14	0	0	0	0	506	3	
15	0	0	0	0	508	3	
0	0	0	0	0	507	3	
1	0	0	0	0	508	6	
2	0	0	0	0	508	3	
3	0	0	0	0	506	3	
4	0	0	0	0	506	3	
5	0	0	0	0	506	0	
6	0	0	0	0	508	3	
7	0	0	0	0	505	3	
8	0	0	0	0	505	3	
9	0	0	0	0	507	6	
10	0	0	0	0	507	3	
11	0	0	0	0	508	3	
12	0	0	0	0	505	3	
13	0	0	0	0	506	0	
14	0	0	0	0	506	3	
15	0	0	0	0	505	3	
0	0	0	0	0	509	3	
1	0	0	0	0	507	6	
2	0	0	0	0	506	3	
3	0	0	0	0	506	3	
4	0	0	0	0	505	3	
5	0	0	0	0	505	0	
6	0	0	0	0	508	3	
7	0	0	0	0	510	3	
8	0	0	0	0	507	3	
9	0	0	0	0	505	6	
10	0	0	0	0	505	3	
11	0	0	0	0	506	3	
12	0	0	0	0	509	3	
13	0	0	0	0	507	0	
14	0	0	0	0	507	3	
15	0	0	0	0	507	3	
0	0	0	0	0	506	3	
1	0	0	0	0	507	6	
2	0	0	0	0	507	3	
3	0	0	0	0	506	3	
4	0	0	0	0	507	3	
5	0	0	0	0	507	0	
6	0	0	0	0	506	3	
7	0	0	0	0	507	3	
8	0	0	0	0	506	3	
9	0	0	0	0	507	6	
10	0	0	0	0	508	3	
11	0	0	0	0	506	3	
12	0	0	0	0	504	3	
13	0	0	0	0	507	0	
14	0	0	0	0	508	3	
15	0	0	0	0	505	3	
0	0	0	0	0	508	3	
1	0	0	0	0	508	6	
2	0	0	0	0	508	3	
3	0	0	0	0	507	3	
4	0	0	0	0	508	3	
5	0	0	0	0	507	0	
6	0	0	0	0	507	3	
7	0	0	0	0	506	3	
8	0	0	0	0	508	3	
9	0	0	0	0	507	6	
10	0	0	0	0	507	3	
11	0	0	0	0	506	3	
12	0	0	0	0	505	3	
13	0	0	0	0	506	0	
14	0	0	0	0	507	3	
15	0	0	0	0	506	3	
0	0	0	0	0	507	3	
1	0	0	0	0	506	6	
2	0	0	0	0	505	3	
3	0	0	0	0	506	3	
4	0	0	0	0	506	3	
5	0	0	0	0	506	0	
6	0	0	0	0	508	3	
7	0	0	0	0	506	3	
8	0	0	0	0	507	3	
9	0	0	0	0	505	6	
10	0	0	0	0	508	3	
11	0	0	0	0	507	3	
12	0	0	0	0	506	3	
13	0	0	0	0	508	0	
14	0	0	0	0	507	3	
15	0	0	0	0	506	3	
0	0	0	0	0	505	3	
1	0	0	0	0	508	6	
2	0	0	0	0	508	3	
3	0	0	0	0	508	3	
4	0	0	0	0	508	3	
5	0	0	0	0	508	0	
6	0	0	0	0	506	3	
7	0	0	0	0	507	3	
8	0	0	0	0	508	3	
9	0	0	0	0	506	6	
10	0	0	0	0	507	3	
11	0	0	0	0	507	3	
12	0	0	0	0	508	3	
13	0	0	0	0	508	0	
14	0	0	0	0	506	3	
15	0	0	0	0	506	3	
0	0	0	0	0	506	3	
1	0	0	0	0	505	6	
2	0	0	0	0	508	3	
3	0	0	0	0	507	3	
4	0	0	0	0	510	3	
5	0	0	0	0	509	0	
6	0	0	0	0	506	3	
7	0	0	0	0	505	3	
8	0	0	0	0	505	3	
9	0	0	0	0	505	6	
10	0	0	0	0	508	3	
11	0	0	0	0	507	3	
12	0	0	0	0	505	3	
13	0	0	0	0	507	0	
14	0	0	0	0	506	3	
15	0	0	0	0	508	3	
0	0	0	0	0	508	3	
1	0	0	0	0	507	6	
2	0	0	0	0	507	3	
3	0	0	0	0	508	3	
4	0	0	0	0	505	3	
5	0	0	0	0	509	0	
6	0	0	0	0	506	3	
7	0	0	0	0	504	3	
8	0	0	0	0	506	3	
9	0	0	0	0	505	6	
10	0	0	0	0	506	3	
11	0	0	0	0	506	3	
12	0	0	0	0	506	3	
13	0	0	0	0	508	0	
14	0	0	0	0	507	3	
15	0	0	0	0	508	3	
0	0	0	0	0	506	3	
1	0	0	0	0	506	6	
2	0	0	0	0	508	3	
3	0	0	0	0	508	3	
4	0	0	0	0	505	3	
5	0	0	0	0	508	0	
6	0	0	0	0	507	3	
7	0	0	0	0	507	3	
8	0	0	0	0	508	3	
9	0	0	0	0	505	6	
10	0	0	0	0	508	3	
11	0	0	0	0	507	3	
12	0	0	0	0	505	3	
13	0	0	0	0	506	0	
14	0	0	0	0	506	3	
15	0	0	0	0	508	3	
0	0	0	0	0	507	3	
1	0	0	0	0	505	6	
2	0	0	0	0	506	3	
3	0	0	0	0	507	3	
4	0	0	0	0	507	3	
5	0	0	0	0	507	0	
6	0	0	0	0	506	3	
7	0	0	0	0	505	3	
8	0	0	0	0	508	3	
9	0	0	0	0	507	6	
10	0	0	0	0	505	3	
11	0	0	0	0	507	3	
12	0	0	0	0	508	2	
13	0	0	0	0	506	0	
14	0	0	0	0	506	3	
15	0	0	0	0	507	3	
0	0	0	0	0	506	3	
1	0	0	0	0	507	6	
2	0	0	0	0	505	3	
3	0	0	0	0	506	3	
4	0	0	0	0	507	3	
5	0	0	0	0	507	0	
6	0	0	0	0	508	3	
7	0	0	0	0	507	3	
8	0	0	0	0	507	3	
9	0	0	0	0	507	6	
10	0	0	0	0	506	3	
11	0	0	0	0	505	3	
12	0	0	0	0	506	3	
13	0	0	0	0	508	0	
14	0	0	0	0	508	3	
15	0	0	0	0	506	3	
0	0	0	0	0	507	3	
1	0	0	0	0	509	6	
2	0	0	0	0	507	3	
3	0	0	0	0	504	3	
4	0	0	0	0	505	3	
5	0	0	0	0	507	0	
6	0	0	0	0	510	3	
7	0	0	0	0	509	3	
8	0	0	0	0	506	3	
9	0	0	0	0	507	6	
10	0	0	0	0	507	3	
11	0	0	0	0	505	3	
12	0	0	0	0	506	3	
13	0	0	0	0	508	0	
14	0	0	0	0	508	3	
15	0	0	0	0	507	3	
0	0	0	0	0	505	3	
1	0	0	0	0	507	6	
2	0	0	0	0	505	3	
3	0	0	0	0	506	3	
4	0	0	0	0	508	3	
5	0	0	0	0	505	0	
6	0	0	0	0	507	3	
7	0	0	0	0	507	3	
8	0	0	0	0	507	3	
9	0	0	0	0	506	6	
10	0	0	0	0	507	3	
11	0	0	0	0	507	3	
12	0	0	0	0	508	3	
13	0	0	0	0	508	0	
14	0	0	0	0	505	3	
15	0	0	0	0	505	3	
0	0	0	0	0	507	3	
1	0	0	0	0	508	6	
2	0	0	0	0	506	3	
3	0	0	0	0	507	3	
4	0	0	0	0	507	3	
5	0	0	0	0	506	0	
6	0	0	0	0	505	3	
7	0	0	0	0	507	3	
8	0	0	0	0	507	3	
9	0	0	0	0	509	6	
10	0	0	0	0	506	3	
11	0	0	0	0	504	3	
12	0	0	0	0	507	3	
13	0	0	0	0	508	0	
14	0	0	0	0	507	3	
15	0	0	0	0	507	3	
0	0	0	0	0	508	3	
1	0	0	0	0	507	6	
2	0	0	0	0	507	3	
3	0	0	0	0	508	3	
4	0	0	0	0	508	3	
5	0	0	0	0	507	0	
6	0	0	0	0	507	3	
7	0	0	0	0	507	3	
8	0	0	0	0	506	3	
9	0	0	0	0	505	6	
10	0	0	0	0	506	3	
11	0	0	0	0	507	3	
12	0	0	0	0	507	3	
13	0	0	0	0	507	0	
14	0	0	0	0	505	3	
15	0	0	0	0	507	3	
0	0	0	0	0	506	3	
1	0	0	0	0	508	6	
2	0	0	0	0	506	3	
3	0	0	0	0	506	3	
4	0	0	0	0	508	3	
5	0	0	0	0	507	0	
6	0	0	0	0	510	3	
7	0	0	0	0	507	3	
8	0	0	0	0	507	3	
9	0	0	0	0	506	6	
10	0	0	0	0	505	3	
11	0	0	0	0	508	3	
12	0	0	0	0	508	3	
13	0	0	0	0	508	0	
14	0	0	0	0	509	3	
15	0	0	0	0	506	3	
0	0	0	0	0	506	3	
1	0	0	0	0	507	6	
2	0	0	0	0	507	3	
3	0	0	0	0	507	3	
4	0	0	0	0	505	3	
5	0	0	0	0	504	0	
6	0	0	0	0	508	3	
7	0	0	0	0	507	3	
8	0	0	0	0	507	3	
9	0	0	0	0	509	6	
10	0	0	0	0	509	3	
11	0	0	0	0	507	3	
12	0	0	0	0	508	3	
13	0	0	0	0	506	0	
14	0	0	0	0	506	3	
15	0	0	0	0	507	3	
0	0	0	0	0	508	3	
1	0	0	0	0	506	6	
2	0	0	0	0	505	3	
3	0	0	0	0	507	3	
4	0	0	0	0	504	3	
5	0	0	0	0	505	0	
6	0	0	0	0	506	3	
7	0	0	0	0	508	3	
8	0	0	0	0	507	3	
9	0	0	0	0	507	6	
10	0	0	0	0	508	3	
11	0	0	0	0	508	3	
12	0	0	0	0	508	3	
13	0	0	0	0	508	0	
14	0	0	0	0	508	3	
15	0	0	0	0	509	3	
0	0	0	0	0	504	3	
1	0	0	0	0	506	6	
2	0	0	0	0	505	3	
3	0	0	0	0	507	3	
4	0	0	0	0	506	3	
5	0	0	0	0	508	0	
6	0	0	0	0	506	3	
7	0	0	0	0	506	3	
8	0	0	0	0	508	3	
9	0	0	0	0	508	6	
10	0	0	0	0	506	3	
11	0	0	0	0	507	3	
12	0	0	0	0	507	3	
13	0	0	0	0	507	0	
14	0	0	0	0	507	3	
15	0	0	0	0	505	3	
0	0	0	0	0	505	3	
1	0	0	0	0	505	6	
2	0	0	0	0	508	3	
3	0	0	0	0	511	3	
4	0	0	0	0	508	3	
5	0	0	0	0	506	0	
6	0	0	0	0	505	3	
7	0	0	0	0	510	3	
8	0	0	0	0	506	3	
9	0	0	0	0	507	6	
10	0	0	0	0	505	3	
11	0	0	0	0	506	3	
12	0	0	0	0	505	3	
13	0	0	0	0	506	0	
14	0	0	0	0	506	3	
15	0	0	0	0	507	3	
0	0	0	0	0	505	3	
1	0	0	0	0	506	6	
2	0	0	0	0	506	3	
3	0	0	0	0	507	3	
4	0	0	0	0	508	3	
5	0	0	0	0	508	0	
6	0	0	0	0	507	3	
7	0	0	0	0	508	3	
8	0	0	0	0	507	3	
9	0	0	0	0	506	6	
10	0	0	0	0	507	3	
11	0	0	0	0	506	3	
12	0	0	0	0	505	3	
13	0	0	0	0	506	0	
14	0	0	0	0	508	3	
15	0	0	0	0	505	3	
0	0	0	0	0	505	3	
1	0	0	0	0	507	6	
2	0	0	0	0	508	3	
3	0	0	0	0	506	3	
4	0	0	0	0	508	3	
5	0	0	0	0	507	0	
6	0	0	0	0	508	3	
7	0	0	0	0	506	3	
8	0	0	0	0	506	3	
9	0	0	0	0	506	6	
10	0	0	0	0	507	3	
11	0	0	0	0	504	3	
12	0	0	0	0	508	3	
13	0	0	0	0	508	0	
14	0	0	0	0	508	3	
15	0	0	0	0	507	3	
0	0	0	0	0	507	3	
1	0	0	0	0	507	6	
2	0	0	0	0	506	3	
3	0	0	0	0	507	3	
4	0	0	0	0	506	3	
5	0	0	0	0	507	0	
6	0	0	0	0	505	3	
7	0	0	0	0	507	3	
8	0	0	0	0	504	3	
9	0	0	0	0	506	6	
10	0	0	0	0	507	3	
11	0	0	0	0	507	3	
12	0	0	0	0	507	3	
13	0	0	0	0	507	0	
14	0	0	0	0	508	3	
15	0	0	0	0	506	3	
0	0	0	0	0	509	3	
1	0	0	0	0	508	6	
2	0	0	0	0	505	3	
3	0	0	0	0	505	3	
4	0	0	0	0	508	3	
5	0	0	0	0	507	0	
6	0	0	0	0	505	3	
7	0	0	0	0	504	3	
8	0	0	0	0	504	3	
9	0	0	0	0	507	6	
10	0	0	0	0	507	3	
11	0	0	0	0	508	3	
12	0	0	0	0	507	3	
13	0	0	0	0	507	0	
14	0	0	0	0	505	3	
15	0	0	0	0	507	3	
0	0	0	0	0	508	3	
1	0	0	0	0	508	6	
2	0	0	0	0	508	3	
3	0	0	0	0	507	3	
4	0	0	0	0	507	2	
5	0	0	0	0	508	0	
6	0	0	0	0	504	3	
7	0	0	0	0	504	3	
8	0	0	0	0	507	3	
9	0	0	0	0	507	6	
10	0	0	0	0	508	3	
11	0	0	0	0	506	3	
12	0	0	0	0	509	3	
13	0	0	0	0	506	0	
14	0	0	0	0	507	3	
15	0	0	0	0	506	3	
0	0	0	0	0	506	3	
1	0	0	0	0	507	6	
2	0	0	0	0	506	3	
3	0	0	0	0	505	3	
4	0	0	0	0	507	3	
5	0	0	0	0	510	0	
6	0	0	0	0	508	3	
7	0	0	0	0	507	3	
8	0	0	0	0	508	3	
9	0	0	0	0	506	6	
10	0	0	0	0	506	3	
11	0	0	0	0	505	3	
12	0	0	0	0	505	2	
13	0	0	0	0	506	0	
14	0	0	0	0	507	3	
15	0	0	0	0	506	3	
0	0	0	0	0	508	3	
1	0	0	0	0	508	6	
2	0	0	0	0	505	3	
3	0	0	0	0	506	3	
4	0	0	0	0	509	3	
5	0	0	0	0	506	0	
6	0	0	0	0	506	3	
7	0	0	0	0	507	3	
8	0	0	0	0	507	3	
9	0	0	0	0	506	6	
10	0	0	0	0	506	3	
11	0	0	0	0	507	3	
12	0	0	0	0	509	3	
13	0	0	0	0	505	0	
14	0	0	0	0	505	3	
15	0	0	0	0	507	3	
0	0	0	0	0	507	3	
1	0	0	0	0	507	6	
2	0	0	0	0	507	3	
3	0	0	0	0	505	3	
4	0	0	0	0	506	3	
5	0	0	0	0	508	0	
6	0	0	0	0	507	3	
7	0	0	0	0	504	3	
8	0	0	0	0	506	3	
9	0	0	0	0	505	6	
10	0	0	0	0	508	3	
11	0	0	0	0	506	3	
12	0	0	0	0	506	3	
13	0	0	0	0	505	0	
14	0	0	0	0	507	3	
15	0	0	0	0	506	3	
0	0	0	0	0	506	3	
1	0	0	0	0	505	6	
2	0	0	0	0	507	3	
3	0	0	0	0	507	3	
4	0	0	0	0	508	3	
5	0	0	0	0	507	0	
6	0	0	0	0	508	3	
7	0	0	0	0	506	3	
8	0	0	0	0	507	3	
9	0	0	0	0	507	6	
10	0	0	0	0	508	3	
11	0	0	0	0	507	3	
12	0	0	0	0	506	3	
13	0	0	0	0	507	0	
14	0	0	0	0	505	3	
15	0	0	0	0	505	3	
0	0	0	0	0	509	3	
1	0	0	0	0	507	6	
2	0	0	0	0	504	3	
3	0	0	0	0	508	3	
4	0	0	0	0	509	3	
5	0	0	0	0	507	0	
6	0	0	0	0	504	3	
7	0	0	0	0	506	3	
8	0	0	0	0	507	3	
9	0	0	0	0	508	6	
10	0	0	0	0	507	3	
11	0	0	0	0	508	3	
12	0	0	0	0	505	3	
13	0	0	0	0	505	0	
14	0	0	0	0	507	3	
15	0	0	0	0	508	3	
0	0	0	0	0	507	3	
1	0	0	0	0	507	6	
2	0	0	0	0	507	3	
3	0	0	0	0	508	3	
4	0	0	0	0	507	3	
5	0	0	0	0	507	0	
6	0	0	0	0	505	3	
7	0	0	0	0	506	3	
8	0	0	0	0	507	3	
9	0	0	0	0	507	6	
10	0	0	0	0	504	3	
11	0	0	0	0	507	3	
12	0	0	0	0	506	3	
13	0	0	0	0	507	0	
14	0	0	0	0	506	3	
15	0	0	0	0	508	3	
0	0	0	0	0	508	3	
1	0	0	0	0	507	6	
2	0	0	0	0	507	3	
3	0	0	0	0	506	3	
4	0	0	0	0	506	3	
5	0	0	0	0	508	0	
6	0	0	0	0	505	3	
7	0	0	0	0	508	3	
8	0	0	0	0	510	3	
9	0	0	0	0	505	6	
10	0	0	0	0	506	3	
11	0	0	0	0	505	3	
12	0	0	0	0	505	3	
13	0	0	0	0	506	0	
14	0	0	0	0	505	3	
15	0	0	0	0	507	3	
0	0	0	0	0	506	3	
1	0	0	0	0	506	6	
2	0	0	0	0	505	3	
3	0	0	0	0	506	3	
4	0	0	0	0	507	3	
5	0	0	0	0	508	0	
6	0	0	0	0	508	3	
7	0	0	0	0	506	3	
8	0	0	0	0	507	3	
9	0	0	0	0	507	6	
10	0	0	0	0	507	3	
11	0	0	0	0	505	3	
12	0	0	0	0	506	3	
13	0	0	0	0	506	0	
14	0	0	0	0	507	3	
15	0	0	0	0	508	3	
0	0	0	0	0	505	3	
1	0	0	0	0	508	6	
2	0	0	0	0	508	3	
3	0	0	0	0	507	3	
4	0	0	0	0	506	3	
5	0	0	0	0	508	0	
6	0	0	0	0	507	3	
7	0	0	0	0	508	3	
8	0	0	0	0	507	3	
9	0	0	0	0	507	6	
10	0	0	0	0	505	3	
11	0	0	0	0	506	3	
12	0	0	0	0	507	3	
13	0	0	0	0	506	0	
14	0	0	0	0	507	3	
15	0	0	0	0	507	3	
0	0	0	0	0	505	3	
1	0	0	0	0	506	6	
2	0	0	0	0	507	3	
3	0	0	0	0	506	3	
4	0	0	0	0	509	3	
5	0	0	0	0	509	0	
6	0	0	0	0	506	3	
7	0	0	0	0	508	3	
8	0	0	0	0	507	3	
9	0	0	0	0	508	6	
10	0	0	0	0	507	3	
11	0	0	0	0	506	3	
12	0	0	0	0	507	3	
13	0	0	0	0	506	0	
14	0	0	0	0	505	3	
15	0	0	0	0	507	3	
0	0	0	0	0	507	3	
1	0	0	0	0	506	6	
2	0	0	0	0	505	3	
3	0	0	0	0	507	3	
4	0	0	0	0	505	3	
5	0	0	0	0	507	0	
6	0	0	0	0	505	3	
7	0	0	0	0	506	3	
8	0	0	0	0	507	3	
9	0	0	0	0	507	6	
10	0	0	0	0	506	3	
11	0	0	0	0	507	3	
12	0	0	0	0	507	3	
13	0	0	0	0	506	0	
14	0	0	0	0	507	3	
15	0	0	0	0	509	3	
0	0	0	0	0	506	3	
1	0	0	0	0	508	6	
2	0	0	0	0	505	3	
3	0	0	0	0	506	3	
4	0	0	0	0	509	3	
5	0	0	0	0	507	0	
6	0	0	0	0	508	3	
7	0	0	0	0	508	3	
8	0	0	0	0	506	3	
9	0	0	0	0	504	6	
10	0	0	0	0	504	3	
11	0	0	0	0	508	3	
12	0	0	0	0	506	3	
13	0	0	0	0	508	0	
14	0	0	0	0	506	3	
15	0	0	0	0	506	3	
0	0	0	0	0	507	3	
1	0	0	0	0	506	6	
2	0	0	0	0	508	3	
3	0	0	0	0	506	3	
4	0	0	0	0	507	3	
5	0	0	0	0	506	0	
6	0	0	0	0	507	3	
7	0	0	0	0	506	3	
8	0	0	0	0	505	3	
9	0	0	0	0	508	6	
10	0	0	0	0	507	3	
11	0	0	0	0	505	3	
12	0	0	0	0	508	3	
13	0	0	0	0	508	0	
14	0	0	0	0	508	3	
15	0	0	0	0	508	3	
0	0	0	0	0	506	3	
1	0	0	0	0	505	6	
2	0	0	0	0	505	3	
3	0	0	0	0	505	3	
4	0	0	0	0	508	3	
5	0	0	0	0	505	0	
6	0	0	0	0	507	3	
7	0	0	0	0	505	3	
8	0	0	0	0	507	3	
9	0	0	0	0	508	6	
10	0	0	0	0	508	3	
11	0	0	0	0	507	3	
12	0	0	0	0	507	3	
13	0	0	0	0	508	0	
14	0	0	0	0	505	3	
15	0	0	0	0	506	3	
0	0	0	0	0	505	3	
1	0	0	0	0	508	6	
2	0	0	0	0	506	3	
3	0	0	0	0	507	3	
4	0	0	0	0	506	3	
5	0	0	0	0	506	0	
6	0	0	0	0	508	3	
7	0	0	0	0	509	3	
8	0	0	0	0	505	3	
9	0	0	0	0	506	6	
10	0	0	0	0	508	3	
11	0	0	0	0	508	3	
12	0	0	0	0	506	3	
13	0	0	0	0	506	0	
14	0	0	0	0	506	3	
15	0	0	0	0	507	3	
0	0	0	0	0	506	3	
1	0	0	0	0	504	6	
2	0	0	0	0	505	3	
3	0	0	0	0	507	3	
4	0	0	0	0	507	3	
5	0	0	0	0	507	0	
6	0	0	0	0	506	3	
7	0	0	0	0	508	3	
8	0	0	0	0	507	3	
9	0	0	0	0	507	6	
10	0	0	0	0	507	3	
11	0	0	0	0	507	3	
12	0	0	0	0	505	3	
13	0	0	0	0	505	0	
14	0	0	0	0	508	3	
15	0	0	0	0	507	3	
0	0	0	0	0	508	3	
1	0	0	0	0	505	6	
2	0	0	0	0	506	3	
3	0	0	0	0	509	3	
4	0	0	0	0	507	3	
5	0	0	0	0	506	0	
6	0	0	0	0	506	3	
7	0	0	0	0	506	3	
8	0	0	0	0	507	3	
9	0	0	0	0	508	6	
10	0	0	0	0	504	3	
11	0	0	0	0	504	3	
12	0	0	0	0	507	3	
13	0	0	0	0	508	0	
14	0	0	0	0	509	3	
15	0	0	0	0	509	3	
0	0	0	0	0	505	3	
1	0	0	0	0	506	6	
2	0	0	0	0	504	3	
3	0	0	0	0	508	3	
4	0	0	0	0	508	3	
5	0	0	0	0	507	0	
6	0	0	0	0	506	3	
7	0	0	0	0	506	3	
8	0	0	0	0	504	3	
9	0	0	0	0	507	6	
10	0	0	0	0	508	3	
11	0	0	0	0	505	3	
12	0	0	0	0	507	3	
13	0	0	0	0	509	0	
14	0	0	0	0	507	3	
15	0	0	0	0	506	3	
0	0	0	0	0	505	3	
1	0	0	0	0	506	6	
2	0	0	0	0	507	3	
3	0	0	0	0	507	3	
4	0	0	0	0	505	3	
5	0	0	0	0	505	0	
6	0	0	0	0	504	3	
7	0	0	0	0	507	3	
8	0	0	0	0	508	3	
9	0	0	0	0	507	6	
10	0	0	0	0	508	3	
11	0	0	0	0	510	3	
12	0	0	0	0	507	3	
13	0	0	0	0	507	0	
14	0	0	0	0	506	3	
15	0	0	0	0	507	3	
0	0	0	0	0	506	3	
1	0	0	0	0	508	6	
2	0	0	0	0	507	3	
3	0	0	0	0	508	3	
4	0	0	0	0	505	3	
5	0	0	0	0	505	0	
6	0	0	0	0	506	3	
7	0	0	0	0	505	3	
8	0	0	0	0	507	3	
9	0	0	0	0	508	6	
10	0	0	0	0	507	3	
11	0	0	0	0	508	3	
12	0	0	0	0	507	3	
13	0	0	0	0	504	0	
14	0	0	0	0	505	3	
15	0	0	0	0	507	3	
0	0	0	0	0	509	3	
1	0	0	0	0	505	6	
2	0	0	0	0	507	3	
3	0	0	0	0	507	3	
4	0	0	0	0	505	2	
5	0	0	0	0	505	0	
6	0	0	0	0	507	3	
7	0	0	0	0	508	3	
8	0	0	0	0	507	3	
9	0	0	0	0	505	6	
10	0	0	0	0	507	3	
11	0	0	0	0	505	3	
12	0	0	0	0	508	3	
13	0	0	0	0	508	0	
14	0	0	0	0	508	3	
15	0	0	0	0	507	3	
0	0	0	0	0	507	3	
1	0	0	0	0	507	6	
2	0	0	0	0	506	3	
3	0	0	0	0	506	3	
4	0	0	0	0	507	3	
5	0	0	0	0	507	0	
6	0	0	0	0	506	3	
7	0	0	0	0	508	3	
8	0	0	0	0	504	3	
9	0	0	0	0	505	6	
10	0	0	0	0	507	3	
11	0	0	0	0	506	3	
12	0	0	0	0	508	3	
13	0	0	0	0	508	0	
14	0	0	0	0	509	3	
15	0	0	0	0	508	3	
0	0	0	0	0	507	3	
1	0	0	0	0	505	6	
2	0	0	0	0	505	3	
3	0	0	0	0	506	3	
4	0	0	0	0	507	3	
5	0	0	0	0	507	0	
6	0	0	0	0	509	3	
7	0	0	0	0	508	3	
8	0	0	0	0	508	3	
9	0	0	0	0	506	6	
10	0	0	0	0	505	3	
11	0	0	0	0	508	3	
12	0	0	0	0	506	3	
13	0	0	0	0	505	0	
14	0	0	0	0	506	3	
15	0	0	0	0	504	3	
0	0	0	0	0	508	3	
1	0	0	0	0	508	6	
2	0	0	0	0	508	3	
3	0	0	0	0	504	3	
4	0	0	0	0	508	3	
5	0	0	0	0	508	0	
6	0	0	0	0	507	3	
7	0	0	0	0	508	3	
8	0	0	0	0	509	3	
9	0	0	0	0	505	6	
10	0	0	0	0	505	3	
11	0	0	0	0	507	3	
12	0	0	0	0	508	3	
13	0	0	0	0	507	0	
14	0	0	0	0	505	3	
15	0	0	0	0	506	3	
0	0	0	0	0	507	3	
1	0	0	0	0	507	6	
2	0	0	0	0	505	3	
3	0	0	0	0	506	3	
4	0	0	0	0	508	3	
5	0	0	0	0	508	0	
6	0	0	0	0	508	3	
7	0	0	0	0	507	3	
8	0	0	0	0	507	3	
9	0	0	0	0	506	6	
10	0	0	0	0	505	3	
11	0	0	0	0	505	3	
12	0	0	0	0	507	3	
13	0	0	0	0	505	0	
14	0	0	0	0	507	3	
15	0	0	0	0	504	3	
0	0	0	0	0	505	3	
1	0	0	0	0	507	6	
2	0	0	0	0	509	3	
3	0	0	0	0	509	3	
4	0	0	0	0	508	3	
5	0	0	0	0	508	0	
6	0	0	0	0	506	3	
7	0	0	0	0	504	3	
8	0	0	0	0	505	3	
9	0	0	0	0	506	6	
10	0	0	0	0	507	3	
11	0	0	0	0	507	3	
12	0	0	0	0	504	3	
13	0	0	0	0	506	0	
14	0	0	0	0	509	3	
15	0	0	0	0	507	3	
0	0	0	0	0	508	3	
1	0	0	0	0	507	6	
2	0	0	0	0	505	3	
3	0	0	0	0	505	3	
4	0	0	0	0	507	3	
5	0	0	0	0	508	0	
6	0	0	0	0	506	3	
7	0	0	0	0	507	3	
8	0	0	0	0	507	3	
9	0	0	0	0	505	6	
10	0	0	0	0	507	3	
11	0	0	0	0	506	3	
12	0	0	0	0	506	3	
13	0	0	0	0	506	0	
14	0	0	0	0	507	3	
15	0	0	0	0	507	3	
0	0	0	0	0	506	3	
1	0	0	0	0	505	6	
2	0	0	0	0	505	3	
3	0	0	0	0	506	3	
4	0	0	0	0	508	3	
5	0	0	0	0	506	0	
6	0	0	0	0	507	3	
7	0	0	0	0	507	3	
8	0	0	0	0	508	3	
9	0	0	0	0	507	6	
10	0	0	0	0	508	3	
11	0	0	0	0	508	3	
12	0	0	0	0	508	3	
13	0	0	0	0	508	0	
14	0	0	0	0	508	3	
15	0	0	0	0	505	3	
0	0	0	0	0	507	3	
1	0	0	0	0	504	6	
2	0	0	0	0	508	3	
3	0	0	0	0	505	3	
4	0	0	0	0	506	3	
5	0	0	0	0	508	0	
6	0	0	0	0	510	3	
7	0	0	0	0	508	3	
8	0	0	0	0	506	3	
9	0	0	0	0	508	6	
10	0	0	0	0	505	3	
11	0	0	0	0	507	3	
12	0	0	0	0	506	3	
13	0	0	0	0	504	0	
14	0	0	0	0	507	3	
15	0	0	0	0	507	3	
0	0	0	0	0	505	3	
1	0	0	0	0	506	6	
2	0	0	0	0	507	3	
3	0	0	0	0	504	3	
4	0	0	0	0	507	3	
5	0	0	0	0	507	0	
6	0	0	0	0	509	3	
7	0	0	0	0	509	3	
8	0	0	0	0	506	3	
9	0	0	0	0	507	6	
10	0	0	0	0	508	3	
11	0	0	0	0	506	3	
12	0	0	0	0	508	3	
13	0	0	0	0	508	0	
14	0	0	0	0	506	3	
15	0	0	0	0	507	3	
0	0	0	0	0	508	3	
1	0	0	0	0	505	6	
2	0	0	0	0	507	3	
3	0	0	0	0	507	3	
4	0	0	0	0	505	3	
5	0	0	0	0	506	0	
6	0	0	0	0	505	3	
7	0	0	0	0	507	3	
8	0	0	0	0	508	3	
9	0	0	0	0	507	6	
10	0	0	0	0	507	3	
11	0	0	0	0	506	3	
12	0	0	0	0	507	3	
13	0	0	0	0	508	0	
14	0	0	0	0	506	3	
15	0	0	0	0	505	3	
0	0	0	0	0	507	3	
1	0	0	0	0	506	6	
2	0	0	0	0	504	3	
3	0	0	0	0	506	3	
4	0	0	0	0	509	3	
5	0	0	0	0	506	0	
6	0	0	0	0	505	3	
7	0	0	0	0	507	3	
8	0	0	0	0	508	3	
9	0	0	0	0	508	6	
10	0	0	0	0	507	3	
11	0	0	0	0	505	3	
12	0	0	0	0	508	3	
13	0	0	0	0	507	0	
14	0	0	0	0	506	3	
15	0	0	0	0	506	3	
0	0	0	0	0	506	3	
1	0	0	0	0	506	6	
2	0	0	0	0	508	3	
3	0	0	0	0	507	3	
4	0	0	0	0	505	3	
5	0	0	0	0	507	0	
6	0	0	0	0	506	3	
7	0	0	0	0	507	3	
8	0	0	0	0	507	3	
9	0	0	0	0	507	6	
10	0	0	0	0	506	3	
11	0	0	0	0	507	3	
12	0	0	0	0	508	3	
13	0	0	0	0	507	0	
14	0	0	0	0	507	3	
15	0	0	0	0	506	3	
0	0	0	0	0	506	3	
1	0	0	0	0	506	6	
2	0	0	0	0	504	3	
3	0	0	0	0	506	3	
4	0	0	0	0	505	3	
5	0	0	0	0	506	0	
6	0	0	0	0	506	3	
7	0	0	0	0	508	3	
8	0	0	0	0	509	3	
9	0	0	0	0	508	6	
10	0	0	0	0	508	3	
11	0	0	0	0	510	3	
12	0	0	0	0	507	3	
13	0	0	0	0	507	0	
14	0	0	0	0	505	3	
15	0	0	0	0	507	3	
0	0	0	0	0	505	3	
1	0	0	0	0	504	6	
2	0	0	0	0	506	3	
3	0	0	0	0	507	3	
4	0	0	0	0	510	3	
5	0	0	0	0	507	0	
6	0	0	0	0	506	3	
7	0	0	0	0	505	3	
8	0	0	0	0	508	3	
9	0	0	0	0	507	6	
10	0	0	0	0	504	3	
11	0	0	0	0	508	3	
12	0	0	0	0	507	3	
13	0	0	0	0	506	0	
14	0	0	0	0	505	3	
15	0	0	0	0	509	3	
0	0	0	0	0	506	3	
1	0	0	0	0	505	6	
2	0	0	0	0	506	3	
3	0	0	0	0	508	3	
4	0	0	0	0	507	3	
5	0	0	0	0	507	0	
6	0	0	0	0	507	3	
7	0	0	0	0	506	3	
8	0	0	0	0	504	3	
9	0	0	0	0	507	6	
10	0	0	0	0	505	3	
11	0	0	0	0	508	3	
12	0	0	0	0	507	3	
13	0	0	0	0	507	0	
14	0	0	0	0	507	3	
15	0	0	0	0	506	3	
0	0	0	0	0	507	3	
1	0	0	0	0	507	6	
2	0	0	0	0	508	3	
3	0	0	0	0	508	3	
4	0	0	0	0	505	3	
5	0	0	0	0	508	0	
6	0	0	0	0	508	3	
7	0	0	0	0	507	3	
8	0	0	0	0	506	3	
9	0	0	0	0	506	6	
10	0	0	0	0	508	3	
11	0	0	0	0	507	3	
12	0	0	0	0	504	3	
13	0	0	0	0	508	0	
14	0	0	0	0	507	3	
15	0	0	0	0	507	3	
0	0	0	0	0	506	3	
1	0	0	0	0	507	6	
2	0	0	0	0	507	3	
3	0	0	0	0	507	3	
4	0	0	0	0	507	3	
5	0	0	0	0	508	0	
6	0	0	0	0	507	3	
7	0	0	0	0	507	3	
8	0	0	0	0	507	3	
9	0	0	0	0	507	6	
10	0	0	0	0	506	3	
11	0	0	0	0	508	3	
12	0	0	0	0	508	3	
13	0	0	0	0	506	0	
14	0	0	0	0	507	3	
15	0	0	0	0	507	3	
0	0	0	0	0	506	3	
1	0	0	0	0	507	6	
2	0	0	0	0	507	3	
3	0	0	0	0	505	3	
4	0	0	0	0	507	3	
5	0	0	0	0	507	0	
6	0	0	0	0	506	3	
7	0	0	0	0	507	3	
8	0	0	0	0	508	3	
9	0	0	0	0	506	6	
10	0	0	0	0	508	3	
11	0	0	0	0	506	3	
12	0	0	0	0	504	3	
13	0	0	0	0	505	0	
14	0	0	0	0	507	3	
15	0	0	0	0	508	3	
0	0	0	0	0	505	3	
1	0	0	0	0	507	6	
2	0	0	0	0	508	3	
3	0	0	0	0	506	3	
4	0	0	0	0	508	3	
5	0	0	0	0	507	0	
6	0	0	0	0	507	3	
7	0	0	0	0	508	3	
8	0	0	0	0	506	3	
9	0	0	0	0	506	6	
10	0	0	0	0	505	3	
11	0	0	0	0	506	3	
12	0	0	0	0	508	3	
13	0	0	0	0	507	0	
14	0	0	0	0	507	3	
15	0	0	0	0	507	3	
0	0	0	0	0	507	3	
1	0	0	0	0	506	6	
2	0	0	0	0	503	3	
3	0	0	0	0	505	3	
4	0	0	0	0	509	3	
5	0	0	0	0	510	0	
6	0	0	0	0	508	3	
7	0	0	0	0	508	3	
8	0	0	0	0	508	3	
9	0	0	0	0	508	6	
10	0	0	0	0	503	3	
11	0	0	0	0	505	3	
12	0	0	0	0	505	3	
13	0	0	0	0	507	0	
14	0	0	0	0	507	3	
15	0	0	0	0	506	3	
0	0	0	0	0	506	3	
1	0	0	0	0	508	6	
2	0	0	0	0	507	3	
3	0	0	0	0	508	3	
4	0	0	0	0	507	2	
5	0	0	0	0	507	0	
6	0	0	0	0	507	3	
7	0	0	0	0	506	3	
8	0	0	0	0	505	3	
9	0	0	0	0	504	6	
10	0	0	0	0	506	3	
11	0	0	0	0	507	3	
12	0	0	0	0	507	3	
13	0	0	0	0	507	0	
14	0	0	0	0	507	3	
15	0	0	0	0	507	3	
0	0	0	0	0	508	3	
1	0	0	0	0	505	6	
2	0	0	0	0	505	3	
3	0	0	0	0	505	3	
4	0	0	0	0	507	3	
5	0	0	0	0	507	0	
6	0	0	0	0	507	3	
7	0	0	0	0	505	3	
8	0	0	0	0	504	3	
9	0	0	0	0	506	6	
10	0	0	0	0	505	3	
11	0	0	0	0	508	3	
12	0	0	0	0	505	3	
13	0	0	0	0	506	0	
14	0	0	0	0	509	3	
15	0	0	0	0	506	3	
0	0	0	0	0	506	3	
1	0	0	0	0	506	6	
2	0	0	0	0	507	3	
3	0	0	0	0	507	3	
4	0	0	0	0	506	3	
5	0	0	0	0	506	0	
6	0	0	0	0	507	3	
7	0	0	0	0	507	3	
8	0	0	0	0	509	3	
9	0	0	0	0	507	6	
10	0	0	0	0	508	3	
11	0	0	0	0	508	3	
12	0	0	0	0	508	3	
13	0	0	0	0	506	0	
14	0	0	0	0	506	3	
15	0	0	0	0	504	3	
0	0	0	0	0	507	3	
1	0	0	0	0	509	6	
2	0	0	0	0	506	3	
3	0	0	0	0	505	3	
4	0	0	0	0	506	3	
5	0	0	0	0	508	0	
6	0	0	0	0	508	3	
7	0	0	0	0	507	3	
8	0	0	0	0	506	3	
9	0	0	0	0	508	6	
10	0	0	0	0	507	3	
11	0	0	0	0	507	3	
12	0	0	0	0	506	3	
13	0	0	0	0	507	0	
14	0	0	0	0	508	3	
15	0	0	0	0	509	3	
0	0	0	0	0	507	3	
1	0	0	0	0	507	6	
2	0	0	0	0	507	3	
3	0	0	0	0	507	3	
4	0	0	0	0	506	3	
5	0	0	0	0	507	0	
6	0	0	0	0	507	3	
7	0	0	0	0	507	3	
8	0	0	0	0	505	3	
9	0	0	0	0	506	6	
10	0	0	0	0	508	3	
11	0	0	0	0	507	3	
12	0	0	0	0	507	3	
13	0	0	0	0	508	0	
14	0	0	0	0	508	3	
15	0	0	0	0	507	3	
0	0	0	0	0	506	3	
1	0	0	0	0	507	6	
2	0	0	0	0	507	3	
3	0	0	0	0	507	3	
4	0	0	0	0	507	3	
5	0	0	0	0	505	0	
6	0	0	0	0	506	3	
7	0	0	0	0	505	3	
8	0	0	0	0	509	3	
9	0	0	0	0	504	6	
10	0	0	0	0	506	3	
11	0	0	0	0	504	3	
12	0	0	0	0	507	3	
13	0	0	0	0	507	0	
14	0	0	0	0	508	3	
15	0	0	0	0	507	3	
0	0	0	0	0	507	3	
1	0	0	0	0	509	6	
2	0	0	0	0	508	3	
3	0	0	0	0	508	3	
4	0	0	0	0	507	3	
5	0	0	0	0	508	0	
6	0	0	0	0	505	3	
7	0	0	0	0	506	3	
8	0	0	0	0	506	3	
9	0	0	0	0	507	6	
10	0	0	0	0	506	3	
11	0	0	0	0	505	3	
12	0	0	0	0	506	3	
13	0	0	0	0	508	0	
14	0	0	0	0	507	3	
15	0	0	0	0	507	3	
0	0	0	0	0	507	3	
1	0	0	0	0	505	6	
2	0	0	0	0	507	3	
3	0	0	0	0	508	3	
4	0	0	0	0	507	3	
5	0	0	0	0	506	0	
6	0	0	0	0	505	3	
7	0	0	0	0	504	3	
8	0	0	0	0	505	3	
9	0	0	0	0	507	6	
10	0	0	0	0	507	3	
11	0	0	0	0	508	3	
12	0	0	0	0	508	3	
13	0	0	0	0	506	0	
14	0	0	0	0	506	3	
15	0	0	0	0	507	3	
0	0	0	0	0	508	3	
1	0	0	0	0	508	6	
2	0	0	0	0	507	3	
3	0	0	0	0	509	3	
4	0	0	0	0	504	3	
5	0	0	0	0	508	0	
6	0	0	0	0	506	3	
7	0	0	0	0	505	3	
8	0	0	0	0	507	3	
9	0	0	0	0	509	6	
10	0	0	0	0	508	3	
11	0	0	0	0	505	3	
12	0	0	0	0	507	3	
13	0	0	0	0	507	0	
14	0	0	0	0	504	3	
15	0	0	0	0	505	3	
0	0	0	0	0	507	3	
1	0	0	0	0	508	6	
2	0	0	0	0	508	3	
3	0	0	0	0	505	3	
4	0	0	0	0	506	3	
5	0	0	0	0	506	0	
6	0	0	0	0	507	3	
7	0	0	0	0	505	3	
8	0	0	0	0	506	3	
9	0	0	0	0	507	6	
10	0	0	0	0	508	3	
11	0	0	0	0	508	3	
12	0	0	0	0	507	3	
13	0	0	0	0	507	0	
14	0	0	0	0	506	3	
15	0	0	0	0	509	3	
0	0	0	0	0	508	3	
1	0	0	0	0	508	6	
2	0	0	0	0	507	3	
3	0	0	0	0	507	3	
4	0	0	0	0	506	3	
5	0	0	0	0	509	0	
6	0	0	0	0	506	3	
7	0	0	0	0	506	3	
8	0	0	0	0	504	3	
9	0	0	0	0	507	6	
10	0	0	0	0	507	3	
11	0	0	0	0	506	3	
12	0	0	0	0	505	3	
13	0	0	0	0	506	0	
14	0	0	0	0	507	3	
15	0	0	0	0	507	3	
0	0	0	0	0	508	3	
1	0	0	0	0	506	6	
2	0	0	0	0	506	3	
3	0	0	0	0	504	3	
4	0	0	0	0	506	3	
5	0	0	0	0	507	0	
6	0	0	0	0	506	3	
7	0	0	0	0	507	3	
8	0	0	0	0	506	3	
9	0	0	0	0	508	6	
10	0	0	0	0	506	3	
11	0	0	0	0	509	3	
12	0	0	0	0	506	2	
13	0	0	0	0	507	0	
14	0	0	0	0	506	3	
15	0	0	0	0	507	3	
0	0	0	0	0	507	3	
1	0	0	0	0	506	6	
2	0	0	0	0	507	3	
3	0	0	0	0	507	3	
4	0	0	0	0	508	3	
5	0	0	0	0	508	0	
6	0	0	0	0	508	3	
7	0	0	0	0	507	3	
8	0	0	0	0	505	3	
9	0	0	0	0	504	6	
10	0	0	0	0	508	3	
11	0	0	0	0	507	3	
12	0	0	0	0	508	3	
13	0	0	0	0	508	0	
14	0	0	0	0	507	3	
15	0	0	0	0	505	3	
0	0	0	0	0	508	3	
1	0	0	0	0	506	6	
2	0	0	0	0	507	3	
3	0	0	0	0	507	3	
4	0	0	0	0	507	3	
5	0	0	0	0	505	0	
6	0	0	0	0	507	3	
7	0	0	0	0	508	3	
8	0	0	0	0	506	3	
9	0	0	0	0	505	6	
10	0	0	0	0	507	3	
11	0	0	0	0	507	3	
12	0	0	0	0	507	3	
13	0	0	0	0	505	0	
14	0	0	0	0	507	3	
15	0	0	0	0	506	3	
0	0	0	0	0	505	3	
1	0	0	0	0	507	6	
2	0	0	0	0	505	3	
3	0	0	0	0	505	3	
4	0	0	0	0	507	3	
5	0	0	0	0	507	0	
6	0	0	0	0	508	3	
7	0	0	0	0	507	3	
8	0	0	0	0	506	3	
9	0	0	0	0	506	6	
10	0	0	0	0	507	3	
11	0	0	0	0	509	3	
12	0	0	0	0	506	3	
13	0	0	0	0	508	0	
14	0	0	0	0	506	3	
15	0	0	0	0	506	3	
0	0	0	0	0	507	3	
1	0	0	0	0	507	6	
2	0	0	0	0	507	3	
3	0	0	0	0	507	3	
4	0	0	0	0	508	3	
5	0	0	0	0	508	0	
6	0	0	0	0	508	3	
7	0	0	0	0	508	3	
8	0	0	0	0	506	3	
9	0	0	0	0	507	6	
10	0	0	0	0	507	3	
11	0	0	0	0	505	3	
12	0	0	0	0	507	3	
13	0	0	0	0	507	0	
14	0	0	0	0	505	3	
15	0	0	0	0	507	3	
0	0	0	0	0	506	3	
1	0	0	0	0	508	6	
2	0	0	0	0	507	3	
3	0	0	0	0	508	3	
4	0	0	0	0	504	3	
5	0	0	0	0	507	0	
6	0	0	0	0	508	3	
7	0	0	0	0	506	3	
8	0	0	0	0	506	3	
9	0	0	0	0	507	6	
10	0	0	0	0	505	3	
11	0	0	0	0	505	3	
12	0	0	0	0	506	3	
13	0	0	0	0	506	0	
14	0	0	0	0	507	3	
15	0	0	0	0	505	3	
0	0	0	0	0	505	3	
1	0	0	0	0	507	6	
2	0	0	0	0	508	3	
3	0	0	0	0	508	3	
4	0	0	0	0	509	3	
5	0	0	0	0	507	0	
6	0	0	0	0	506	3	
7	0	0	0	0	507	3	
8	0	0	0	0	505	3	
9	0	0	0	0	507	6	
10	0	0	0	0	506	3	
11	0	0	0	0	505	3	
12	0	0	0	0	507	3	
13	0	0	0	0	507	0	
14	0	0	0	0	505	3	
15	0	0	0	0	508	3	
0	0	0	0	0	506	3	
1	0	0	0	0	507	6	
2	0	0	0	0	504	3	
3	0	0	0	0	508	3	
4	0	0	0	0	508	3	
5	0	0	0	0	508	0	
6	0	0	0	0	508	3	
7	0	0	0	0	505	3	
8	0	0	0	0	507	3	
9	0	0	0	0	507	6	
10	0	0	0	0	507	3	
11	0	0	0	0	508	3	
12	0	0	0	0	507	3	
13	0	0	0	0	507	0	
14	0	0	0	0	507	3	
15	0	0	0	0	507	3	
0	0	0	0	0	505	3	
1	0	0	0	0	504	6	
2	0	0	0	0	509	3	
3	0	0	0	0	507	3	
4	0	0	0	0	508	3	
5	0	0	0	0	508	0	
6	0	0	0	0	506	3	
7	0	0	0	0	507	3	
8	0	0	0	0	506	3	
9	0	0	0	0	506	6	
10	0	0	0	0	504	3	
11	0	0	0	0	507	3	
12	0	0	0	0	505	3	
13	0	0	0	0	508	0	
14	0	0	0	0	508	3	
15	0	0	0	0	508	3	
0	0	0	0	0	508	3	
1	0	0	0	0	506	6	
2	0	0	0	0	507	3	
3	0	0	0	0	507	3	
4	0	0	0	0	507	3	
5	0	0	0	0	508	0	
6	0	0	0	0	507	3	
7	0	0	0	0	507	3	
8	0	0	0	0	506	3	
9	0	0	0	0	507	6	
10	0	0	0	0	506	3	
11	0	0	0	0	504	3	
12	0	0	0	0	508	3	
13	0	0	0	0	505	0	
14	0	0	0	0	508	3	
15	0	0	0	0	507	3	
0	0	0	0	0	508	3	
1	0	0	0	0	504	6	
2	0	0	0	0	505	3	
3	0	0	0	0	507	3	
4	0	0	0	0	509	3	
5	0	0	0	0	508	0	
6	0	0	0	0	507	3	
7	0	0	0	0	507	3	
8	0	0	0	0	507	3	
9	0	0	0	0	506	6	
10	0	0	0	0	509	3	
11	0	0	0	0	507	3	
12	0	0	0	0	508	3	
13	0	0	0	0	506	0	
14	0	0	0	0	505	3	
15	0	0	0	0	504	3	
0	0	0	0	0	507	3	
1	0	0	0	0	507	6	
2	0	0	0	0	507	3	
3	0	0	0	0	506	3	
4	0	0	0	0	505	3	
5	0	0	0	0	505	0	
6	0	0	0	0	505	3	
7	0	0	0	0	507	3	
8	0	0	0	0	510	3	
9	0	0	0	0	508	6	
10	0	0	0	0	507	3	
11	0	0	0	0	508	3	
12	0	0	0	0	507	3	
13	0	0	0	0	504	0	
14	0	0	0	0	507	3	
15	0	0	0	0	506	3	
0	0	0	0	0	507	3	
1	0	0	0	0	506	6	
2	0	0	0	0	509	3	
3	0	0	0	0	506	3	
4	0	0	0	0	507	3	
5	0	0	0	0	507	0	
6	0	0	0	0	507	3	
7	0	0	0	0	508	3	
8	0	0	0	0	505	3	
9	0	0	0	0	508	6	
10	0	0	0	0	505	3	
11	0	0	0	0	507	3	
12	0	0	0	0	508	3	
13	0	0	0	0	505	0	
14	0	0	0	0	506	3	
15	0	0	0	0	505	3	
0	0	0	0	0	508	3	
1	0	0	0	0	508	6	
2	0	0	0	0	505	3	
3	0	0	0	0	505	3	
4	0	0	0	0	508	3	
5	0	0	0	0	507	0	
6	0	0	0	0	508	3	
7	0	0	0	0	508	3	
8	0	0	0	0	506	3	
9	0	0	0	0	506	6	
10	0	0	0	0	507	3	
11	0	0	0	0	505	3	
12	0	0	0	0	506	3	
13	0	0	0	0	506	0	
14	0	0	0	0	508	3	
15	0	0	0	0	506	3	
0	0	0	0	0	504	3	
1	0	0	0	0	507	6	
2	0	0	0	0	508	3	
3	0	0	0	0	508	3	
4	0	0	0	0	505	3	
5	0	0	0	0	507	0	
6	0	0	0	0	505	3	
7	0	0	0	0	507	3	
8	0	0	0	0	507	3	
9	0	0	0	0	508	6	
10	0	0	0	0	507	3	
11	0	0	0	0	505	3	
12	0	0	0	0	508	3	
13	0	0	0	0	506	0	
14	0	0	0	0	509	3	
15	0	0	0	0	506	3	
0	0	0	0	0	507	3	
1	0	0	0	0	508	6	
2	0	0	0	0	508	3	
