# OpenSignals Text File Format. Version 1
# {"98:D3:11:FE:05:A2": {"position": 0, "device": "bitalino_rev", "device name": "98:D3:11:FE:05:A2", "device connection": "BTH98:D3:11:FE:05:A2", "sampling rate": 1000, "resolution": [4, 1, 1, 1, 1, 10, 10], "firmware version": 1282, "comments": "", "keywords": "", "mode": 0, "sync interval": 2, "date": "2026-6-12", "time": "12:31:32.131", "channels": [4, 5], "sensor": ["EMGBITREV", "RAW"], "label": ["A4", "A5"], "column": ["nSeq", "I1", "I2", "O1", "O2", "A4", "A5"], "special": [{}, {}], "digital IO": [0, 0, 1, 1]}}
# EndOfHeader
0	0	0	0	0	511	3	
1	0	0	0	0	511	2	
2	0	0	0	0	509	0	
3	0	0	0	0	511	3	
4	0	0	0	0	511	3	
5	0	0	0	0	511	4	
6	0	0	0	0	509	8	
7	0	0	0	0	510	3	
8	0	0	0	0	510	3	
9	0	0	0	0	509	2	
10	0	0	0	0	510	0	
11	0	0	0	0	511	3	
12	0	0	0	0	511	3	
13	0	0	0	0	511	4	
14	0	0	0	0	509	8	
15	0	0	0	0	509	3	
0	0	0	0	0	511	3	
1	0	0	0	0	511	2	
2	0	0	0	0	511	0	
3	0	0	0	0	511	3	
4	0	0	0	0	511	3	
5	0	0	0	0	512	4	
6	0	0	0	0	510	8	
7	0	0	0	0	510	3	
8	0	0	0	0	511	3	
9	0	0	0	0	512	2	
10	0	0	0	0	513	0	
11	0	0	0	0	513	3	
12	0	0	0	0	510	3	
13	0	0	0	0	509	4	
14	0	0	0	0	510	8	
15	0	0	0	0	508	3	
0	0	0	0	0	511	3	
1	0	0	0	0	510	2	
2	0	0	0	0	510	0	
3	0	0	0	0	509	3	
4	0	0	0	0	511	3	
5	0	0	0	0	509	4	
6	0	0	0	0	511	8	
7	0	0	0	0	508	3	
8	0	0	0	0	510	3	
9	0	0	0	0	511	2	
10	0	0	0	0	512	0	
11	0	0	0	0	510	3	
12	0	0	0	0	510	3	
13	0	0	0	0	509	4	
14	0	0	0	0	510	8	
15	0	0	0	0	509	3	
0	0	0	0	0	511	3	
1	0	0	0	0	512	2	
2	0	0	0	0	511	0	
3	0	0	0	0	511	3	
4	0	0	0	0	511	3	
5	0	0	0	0	511	4	
6	0	0	0	0	510	8	
7	0	0	0	0	510	3	
8	0	0	0	0	509	3	
9	0	0	0	0	513	2	
10	0	0	0	0	510	0	
11	0	0	0	0	510	3	
12	0	0	0	0	511	3	
13	0	0	0	0	513	4	
14	0	0	0	0	512	8	
15	0	0	0	0	512	3	
0	0	0	0	0	510	3	
1	0	0	0	0	509	2	
2	0	0	0	0	509	0	
3	0	0	0	0	512	3	
4	0	0	0	0	510	3	
5	0	0	0	0	511	4	
6	0	0	0	0	511	8	
7	0	0	0	0	508	3	
8	0	0	0	0	508	3	
9	0	0	0	0	511	2	
10	0	0	0	0	510	0	
11	0	0	0	0	510	3	
12	0	0	0	0	511	3	
13	0	0	0	0	512	4	
14	0	0	0	0	511	8	
15	0	0	0	0	512	3	
0	0	0	0	0	511	3	
1	0	0	0	0	510	2	
2	0	0	0	0	510	0	
3	0	0	0	0	512	3	
4	0	0	0	0	511	3	
5	0	0	0	0	510	4	
6	0	0	0	0	510	8	
7	0	0	0	0	511	3	
8	0	0	0	0	510	3	
9	0	0	0	0	511	2	
10	0	0	0	0	509	0	
11	0	0	0	0	509	3	
12	0	0	0	0	511	3	
13	0	0	0	0	512	4	
14	0	0	0	0	511	8	
15	0	0	0	0	512	3	
0	0	0	0	0	511	3	
1	0	0	0	0	511	2	
2	0	0	0	0	511	0	
3	0	0	0	0	512	3	
4	0	0	0	0	510	3	
5	0	0	0	0	509	4	
6	0	0	0	0	512	8	
7	0	0	0	0	510	3	
8	0	0	0	0	509	3	
9	0	0	0	0	511	2	
10	0	0	0	0	510	0	
11	0	0	0	0	512	3	
12	0	0	0	0	510	3	
13	0	0	0	0	510	4	
14	0	0	0	0	511	8	
15	0	0	0	0	509	3	
0	0	0	0	0	511	3	
1	0	0	0	0	511	2	
2	0	0	0	0	513	0	
3	0	0	0	0	509	3	
4	0	0	0	0	508	3	
5	0	0	0	0	511	4	
6	0	0	0	0	512	8	
7	0	0	0	0	512	3	
8	0	0	0	0	511	3	
9	0	0	0	0	511	2	
10	0	0	0	0	510	0	
11	0	0	0	0	509	3	
12	0	0	0	0	510	3	
13	0	0	0	0	512	4	
14	0	0	0	0	508	8	
15	0	0	0	0	511	3	
0	0	0	0	0	512	3	
1	0	0	0	0	511	2	
2	0	0	0	0	510	0	
3	0	0	0	0	510	3	
4	0	0	0	0	512	3	
5	0	0	0	0	510	4	
6	0	0	0	0	511	8	
7	0	0	0	0	511	3	
8	0	0	0	0	508	3	
9	0	0	0	0	511	2	
10	0	0	0	0	509	0	
11	0	0	0	0	509	3	
12	0	0	0	0	511	3	
13	0	0	0	0	510	4	
14	0	0	0	0	509	8	
15	0	0	0	0	512	3	
0	0	0	0	0	512	3	
1	0	0	0	0	509	2	
2	0	0	0	0	511	0	
3	0	0	0	0	511	3	
4	0	0	0	0	511	3	
5	0	0	0	0	513	4	
6	0	0	0	0	512	8	
7	0	0	0	0	511	3	
8	0	0	0	0	510	3	
9	0	0	0	0	509	2	
10	0	0	0	0	510	0	
11	0	0	0	0	511	3	
12	0	0	0	0	511	3	
13	0	0	0	0	511	4	
14	0	0	0	0	510	8	
15	0	0	0	0	512	3	
0	0	0	0	0	510	3	
1	0	0	0	0	511	2	
2	0	0	0	0	513	0	
3	0	0	0	0	510	3	
4	0	0	0	0	508	3	
5	0	0	0	0	508	4	
6	0	0	0	0	512	8	
7	0	0	0	0	511	3	
8	0	0	0	0	510	3	
9	0	0	0	0	508	2	
10	0	0	0	0	510	0	
11	0	0	0	0	511	3	
12	0	0	0	0	511	3	
13	0	0	0	0	511	4	
14	0	0	0	0	512	8	
15	0	0	0	0	511	3	
0	0	0	0	0	511	3	
1	0	0	0	0	511	2	
2	0	0	0	0	511	0	
3	0	0	0	0	511	3	
4	0	0	0	0	510	3	
5	0	0	0	0	511	4	
6	0	0	0	0	510	8	
7	0	0	0	0	511	3	
8	0	0	0	0	511	3	
9	0	0	0	0	510	2	
10	0	0	0	0	510	0	
11	0	0	0	0	508	3	
12	0	0	0	0	512	3	
13	0	0	0	0	510	4	
14	0	0	0	0	511	8	
15	0	0	0	0	511	3	
0	0	0	0	0	510	3	
1	0	0	0	0	511	2	
2	0	0	0	0	509	0	
3	0	0	0	0	511	3	
4	0	0	0	0	511	3	
5	0	0	0	0	511	4	
6	0	0	0	0	511	8	
7	0	0	0	0	510	3	
8	0	0	0	0	510	3	
9	0	0	0	0	509	2	
10	0	0	0	0	511	0	
11	0	0	0	0	511	3	
12	0	0	0	0	510	3	
13	0	0	0	0	511	4	
14	0	0	0	0	511	8	
15	0	0	0	0	509	3	
0	0	0	0	0	511	3	
1	0	0	0	0	512	2	
2	0	0	0	0	512	0	
3	0	0	0	0	511	3	
4	0	0	0	0	511	3	
5	0	0	0	0	512	4	
6	0	0	0	0	508	8	
7	0	0	0	0	510	3	
8	0	0	0	0	511	3	
9	0	0	0	0	512	2	
10	0	0	0	0	510	0	
11	0	0	0	0	510	3	
12	0	0	0	0	510	3	
13	0	0	0	0	510	4	
14	0	0	0	0	511	8	
15	0	0	0	0	511	3	
0	0	0	0	0	513	3	
1	0	0	0	0	511	2	
2	0	0	0	0	511	0	
3	0	0	0	0	510	3	
4	0	0	0	0	510	3	
5	0	0	0	0	510	4	
6	0	0	0	0	512	8	
7	0	0	0	0	512	3	
8	0	0	0	0	513	3	
9	0	0	0	0	510	2	
10	0	0	0	0	510	0	
11	0	0	0	0	511	3	
12	0	0	0	0	512	3	
13	0	0	0	0	512	4	
14	0	0	0	0	511	8	
15	0	0	0	0	511	3	
0	0	0	0	0	512	3	
1	0	0	0	0	511	2	
2	0	0	0	0	510	0	
3	0	0	0	0	509	3	
4	0	0	0	0	510	3	
5	0	0	0	0	510	4	
6	0	0	0	0	510	8	
7	0	0	0	0	512	3	
8	0	0	0	0	512	3	
9	0	0	0	0	511	2	
10	0	0	0	0	513	0	
11	0	0	0	0	512	3	
12	0	0	0	0	508	3	
13	0	0	0	0	509	4	
14	0	0	0	0	509	8	
15	0	0	0	0	509	3	
0	0	0	0	0	512	3	
1	0	0	0	0	511	2	
2	0	0	0	0	511	0	
3	0	0	0	0	511	3	
4	0	0	0	0	511	3	
5	0	0	0	0	509	4	
6	0	0	0	0	511	8	
7	0	0	0	0	509	3	
8	0	0	0	0	511	3	
9	0	0	0	0	511	2	
10	0	0	0	0	509	0	
11	0	0	0	0	511	3	
12	0	0	0	0	511	3	
13	0	0	0	0	510	4	
14	0	0	0	0	510	8	
15	0	0	0	0	511	3	
0	0	0	0	0	511	3	
1	0	0	0	0	511	2	
2	0	0	0	0	510	0	
3	0	0	0	0	510	3	
4	0	0	0	0	511	3	
5	0	0	0	0	511	4	
6	0	0	0	0	511	8	
7	0	0	0	0	511	3	
8	0	0	0	0	511	3	
9	0	0	0	0	510	2	
10	0	0	0	0	512	0	
11	0	0	0	0	509	3	
12	0	0	0	0	509	3	
13	0	0	0	0	511	4	
14	0	0	0	0	511	8	
15	0	0	0	0	510	3	
0	0	0	0	0	511	3	
1	0	0	0	0	511	2	
2	0	0	0	0	512	0	
3	0	0	0	0	511	3	
4	0	0	0	0	512	3	
5	0	0	0	0	509	4	
6	0	0	0	0	510	8	
7	0	0	0	0	510	3	
8	0	0	0	0	511	3	
9	0	0	0	0	511	2	
10	0	0	0	0	509	0	
11	0	0	0	0	510	3	
12	0	0	0	0	509	3	
13	0	0	0	0	511	4	
14	0	0	0	0	511	8	
15	0	0	0	0	510	3	
0	0	0	0	0	511	3	
1	0	0	0	0	511	2	
2	0	0	0	0	511	0	
3	0	0	0	0	512	3	
4	0	0	0	0	513	3	
5	0	0	0	0	511	4	
6	0	0	0	0	513	8	
7	0	0	0	0	511	3	
8	0	0	0	0	511	3	
9	0	0	0	0	511	2	
10	0	0	0	0	511	0	
11	0	0	0	0	511	3	
12	0	0	0	0	510	3	
13	0	0	0	0	508	4	
14	0	0	0	0	509	8	
15	0	0	0	0	510	3	
0	0	0	0	0	510	3	
1	0	0	0	0	512	2	
2	0	0	0	0	511	0	
3	0	0	0	0	511	3	
4	0	0	0	0	510	3	
5	0	0	0	0	510	4	
6	0	0	0	0	510	8	
7	0	0	0	0	510	3	
8	0	0	0	0	513	3	
9	0	0	0	0	511	2	
10	0	0	0	0	511	0	
11	0	0	0	0	508	3	
12	0	0	0	0	507	3	
13	0	0	0	0	510	4	
14	0	0	0	0	512	8	
15	0	0	0	0	511	3	
0	0	0	0	0	512	3	
1	0	0	0	0	512	2	
2	0	0	0	0	510	0	
3	0	0	0	0	511	3	
4	0	0	0	0	510	3	
5	0	0	0	0	509	4	
6	0	0	0	0	509	8	
7	0	0	0	0	512	3	
8	0	0	0	0	511	3	
9	0	0	0	0	510	2	
10	0	0	0	0	513	0	
11	0	0	0	0	512	3	
12	0	0	0	0	510	3	
13	0	0	0	0	512	4	
14	0	0	0	0	511	8	
15	0	0	0	0	510	3	
0	0	0	0	0	511	3	
1	0	0	0	0	510	2	
2	0	0	0	0	509	0	
3	0	0	0	0	511	3	
4	0	0	0	0	509	3	
5	0	0	0	0	512	4	
6	0	0	0	0	511	8	
7	0	0	0	0	509	3	
8	0	0	0	0	511	3	
9	0	0	0	0	511	2	
10	0	0	0	0	510	0	
11	0	0	0	0	511	3	
12	0	0	0	0	511	3	
13	0	0	0	0	510	4	
14	0	0	0	0	510	8	
15	0	0	0	0	510	3	
0	0	0	0	0	512	3	
1	0	0	0	0	511	2	
2	0	0	0	0	511	0	
3	0	0	0	0	509	3	
4	0	0	0	0	511	3	
5	0	0	0	0	511	4	
6	0	0	0	0	510	8	
7	0	0	0	0	508	3	
8	0	0	0	0	509	3	
9	0	0	0	0	510	2	
10	0	0	0	0	509	0	
11	0	0	0	0	511	3	
12	0	0	0	0	512	3	
13	0	0	0	0	511	4	
14	0	0	0	0	513	8	
15	0	0	0	0	513	3	
0	0	0	0	0	511	3	
1	0	0	0	0	509	2	
2	0	0	0	0	509	0	
3	0	0	0	0	510	3	
4	0	0	0	0	508	3	
5	0	0	0	0	509	4	
6	0	0	0	0	510	8	
7	0	0	0	0	512	3	
8	0	0	0	0	511	3	
9	0	0	0	0	511	2	
10	0	0	0	0	511	0	
11	0	0	0	0	513	3	
12	0	0	0	0	512	3	
13	0	0	0	0	510	4	
14	0	0	0	0	510	8	
15	0	0	0	0	511	3	
0	0	0	0	0	512	3	
1	0	0	0	0	511	2	
2	0	0	0	0	511	0	
3	0	0	0	0	511	3	
4	0	0	0	0	509	3	
5	0	0	0	0	510	4	
6	0	0	0	0	511	8	
7	0	0	0	0	511	3	
8	0	0	0	0	509	3	
9	0	0	0	0	510	2	
10	0	0	0	0	512	0	
11	0	0	0	0	512	3	
12	0	0	0	0	512	3	
13	0	0	0	0	510	4	
14	0	0	0	0	509	8	
15	0	0	0	0	511	3	
0	0	0	0	0	510	3	
1	0	0	0	0	511	2	
2	0	0	0	0	511	0	
3	0	0	0	0	510	3	
4	0	0	0	0	511	3	
5	0	0	0	0	512	4	
6	0	0	0	0	511	8	
7	0	0	0	0	511	3	
8	0	0	0	0	509	3	
9	0	0	0	0	510	2	
10	0	0	0	0	511	0	
11	0	0	0	0	510	3	
12	0	0	0	0	512	3	
13	0	0	0	0	511	4	
14	0	0	0	0	511	8	
15	0	0	0	0	510	3	
0	0	0	0	0	510	3	
1	0	0	0	0	511	2	
2	0	0	0	0	512	0	
3	0	0	0	0	510	3	
4	0	0	0	0	509	3	
5	0	0	0	0	511	4	
6	0	0	0	0	511	8	
7	0	0	0	0	508	3	
8	0	0	0	0	509	3	
9	0	0	0	0	511	2	
10	0	0	0	0	512	0	
11	0	0	0	0	510	3	
12	0	0	0	0	511	3	
13	0	0	0	0	511	4	
14	0	0	0	0	511	8	
15	0	0	0	0	511	3	
0	0	0	0	0	509	3	
1	0	0	0	0	507	2	
2	0	0	0	0	509	0	
3	0	0	0	0	510	3	
4	0	0	0	0	510	3	
5	0	0	0	0	510	4	
6	0	0	0	0	510	8	
7	0	0	0	0	512	3	
8	0	0	0	0	512	3	
9	0	0	0	0	511	2	
10	0	0	0	0	512	0	
11	0	0	0	0	512	3	
12	0	0	0	0	512	3	
13	0	0	0	0	511	4	
14	0	0	0	0	512	8	
15	0	0	0	0	509	3	
0	0	0	0	0	510	3	
1	0	0	0	0	509	2	
2	0	0	0	0	511	0	
3	0	0	0	0	510	3	
4	0	0	0	0	510	3	
5	0	0	0	0	509	4	
6	0	0	0	0	511	8	
7	0	0	0	0	508	3	
8	0	0	0	0	510	3	
9	0	0	0	0	511	2	
10	0	0	0	0	510	0	
11	0	0	0	0	511	3	
12	0	0	0	0	511	3	
13	0	0	0	0	509	4	
14	0	0	0	0	512	8	
15	0	0	0	0	511	3	
0	0	0	0	0	511	3	
1	0	0	0	0	513	2	
2	0	0	0	0	512	0	
3	0	0	0	0	511	3	
4	0	0	0	0	511	3	
5	0	0	0	0	511	4	
6	0	0	0	0	512	8	
7	0	0	0	0	510	3	
8	0	0	0	0	510	3	
9	0	0	0	0	510	2	
10	0	0	0	0	510	0	
11	0	0	0	0	509	3	
12	0	0	0	0	512	3	
13	0	0	0	0	513	4	
14	0	0	0	0	512	8	
15	0	0	0	0	511	3	
0	0	0	0	0	509	3	
1	0	0	0	0	508	2	
2	0	0	0	0	510	0	
3	0	0	0	0	511	3	
4	0	0	0	0	510	3	
5	0	0	0	0	511	4	
6	0	0	0	0	512	8	
7	0	0	0	0	508	3	
8	0	0	0	0	513	3	
9	0	0	0	0	511	2	
10	0	0	0	0	510	0	
11	0	0	0	0	510	3	
12	0	0	0	0	511	3	
13	0	0	0	0	511	4	
14	0	0	0	0	512	8	
15	0	0	0	0	510	3	
0	0	0	0	0	512	3	
1	0	0	0	0	511	2	
2	0	0	0	0	511	0	
3	0	0	0	0	510	3	
4	0	0	0	0	509	3	
5	0	0	0	0	509	4	
6	0	0	0	0	512	8	
7	0	0	0	0	510	3	
8	0	0	0	0	512	3	
9	0	0	0	0	510	2	
10	0	0	0	0	508	0	
11	0	0	0	0	509	3	
12	0	0	0	0	511	3	
13	0	0	0	0	512	4	
14	0	0	0	0	510	8	
15	0	0	0	0	511	3	
0	0	0	0	0	512	3	
1	0	0	0	0	513	2	
2	0	0	0	0	513	0	
3	0	0	0	0	513	3	
4	0	0	0	0	512	3	
5	0	0	0	0	511	4	
6	0	0	0	0	508	8	
7	0	0	0	0	510	3	
8	0	0	0	0	509	3	
9	0	0	0	0	510	2	
10	0	0	0	0	511	0	
11	0	0	0	0	510	3	
12	0	0	0	0	510	3	
13	0	0	0	0	507	4	
14	0	0	0	0	511	8	
15	0	0	0	0	512	3	
0	0	0	0	0	511	3	
1	0	0	0	0	512	2	
2	0	0	0	0	510	0	
3	0	0	0	0	510	3	
4	0	0	0	0	509	3	
5	0	0	0	0	512	4	
6	0	0	0	0	510	8	
7	0	0	0	0	512	3	
8	0	0	0	0	511	3	
9	0	0	0	0	512	2	
10	0	0	0	0	510	0	
11	0	0	0	0	510	3	
12	0	0	0	0	510	3	
13	0	0	0	0	511	4	
14	0	0	0	0	511	8	
15	0	0	0	0	511	3	
0	0	0	0	0	512	3	
1	0	0	0	0	511	2	
2	0	0	0	0	510	0	
3	0	0	0	0	511	3	
4	0	0	0	0	511	3	
5	0	0	0	0	511	4	
6	0	0	0	0	511	8	
7	0	0	0	0	511	3	
8	0	0	0	0	512	3	
9	0	0	0	0	509	2	
10	0	0	0	0	510	0	
11	0	0	0	0	509	3	
12	0	0	0	0	512	3	
13	0	0	0	0	509	4	
14	0	0	0	0	511	8	
15	0	0	0	0	510	3	
0	0	0	0	0	511	3	
1	0	0	0	0	510	2	
2	0	0	0	0	509	0	
3	0	0	0	0	509	3	
4	0	0	0	0	510	3	
5	0	0	0	0	512	4	
6	0	0	0	0	511	8	
7	0	0	0	0	511	3	
8	0	0	0	0	509	3	
9	0	0	0	0	510	2	
10	0	0	0	0	511	0	
11	0	0	0	0	512	3	
12	0	0	0	0	513	3	
13	0	0	0	0	511	4	
14	0	0	0	0	511	8	
15	0	0	0	0	511	3	
0	0	0	0	0	508	3	
1	0	0	0	0	508	2	
2	0	0	0	0	510	0	
3	0	0	0	0	512	3	
4	0	0	0	0	508	3	
5	0	0	0	0	509	4	
6	0	0	0	0	512	8	
7	0	0	0	0	512	3	
8	0	0	0	0	511	3	
9	0	0	0	0	511	2	
10	0	0	0	0	510	0	
11	0	0	0	0	512	3	
12	0	0	0	0	509	3	
13	0	0	0	0	510	4	
14	0	0	0	0	508	8	
15	0	0	0	0	512	3	
0	0	0	0	0	513	3	
1	0	0	0	0	511	2	
2	0	0	0	0	510	0	
3	0	0	0	0	511	3	
4	0	0	0	0	511	3	
5	0	0	0	0	511	4	
6	0	0	0	0	511	8	
7	0	0	0	0	511	3	
8	0	0	0	0	510	3	
9	0	0	0	0	511	2	
10	0	0	0	0	511	0	
11	0	0	0	0	510	3	
12	0	0	0	0	509	3	
13	0	0	0	0	511	4	
14	0	0	0	0	512	8	
15	0	0	0	0	508	3	
0	0	0	0	0	510	3	
1	0	0	0	0	510	2	
2	0	0	0	0	509	0	
3	0	0	0	0	510	3	
4	0	0	0	0	512	3	
5	0	0	0	0	510	4	
6	0	0	0	0	512	8	
7	0	0	0	0	510	3	
8	0	0	0	0	511	3	
9	0	0	0	0	510	2	
10	0	0	0	0	511	0	
11	0	0	0	0	512	3	
12	0	0	0	0	512	3	
13	0	0	0	0	510	4	
14	0	0	0	0	509	8	
15	0	0	0	0	511	3	
0	0	0	0	0	511	3	
1	0	0	0	0	509	2	
2	0	0	0	0	510	0	
3	0	0	0	0	511	3	
4	0	0	0	0	511	3	
5	0	0	0	0	510	4	
6	0	0	0	0	510	8	
7	0	0	0	0	511	3	
8	0	0	0	0	512	3	
9	0	0	0	0	512	2	
10	0	0	0	0	511	0	
11	0	0	0	0	511	3	
12	0	0	0	0	510	3	
13	0	0	0	0	511	4	
14	0	0	0	0	510	8	
15	0	0	0	0	510	3	
0	0	0	0	0	509	3	
1	0	0	0	0	512	2	
2	0	0	0	0	512	0	
3	0	0	0	0	511	3	
4	0	0	0	0	511	3	
5	0	0	0	0	511	4	
6	0	0	0	0	511	8	
7	0	0	0	0	510	3	
8	0	0	0	0	511	3	
9	0	0	0	0	510	2	
10	0	0	0	0	509	0	
11	0	0	0	0	511	3	
12	0	0	0	0	510	3	
13	0	0	0	0	510	4	
14	0	0	0	0	511	8	
15	0	0	0	0	510	3	
0	0	0	0	0	511	3	
1	0	0	0	0	511	2	
2	0	0	0	0	512	0	
3	0	0	0	0	511	3	
4	0	0	0	0	509	3	
5	0	0	0	0	511	4	
6	0	0	0	0	511	8	
7	0	0	0	0	510	3	
8	0	0	0	0	511	3	
9	0	0	0	0	512	2	
10	0	0	0	0	512	0	
11	0	0	0	0	512	3	
12	0	0	0	0	510	3	
13	0	0	0	0	509	4	
14	0	0	0	0	509	8	
15	0	0	0	0	511	3	
0	0	0	0	0	512	3	
1	0	0	0	0	510	2	
2	0	0	0	0	510	0	
3	0	0	0	0	511	3	
4	0	0	0	0	511	3	
5	0	0	0	0	512	4	
6	0	0	0	0	513	8	
7	0	0	0	0	510	3	
8	0	0	0	0	511	3	
9	0	0	0	0	510	2	
10	0	0	0	0	511	0	
11	0	0	0	0	511	3	
12	0	0	0	0	508	3	
13	0	0	0	0	510	4	
14	0	0	0	0	511	8	
15	0	0	0	0	511	3	
0	0	0	0	0	510	3	
1	0	0	0	0	509	2	
2	0	0	0	0	510	0	
3	0	0	0	0	511	3	
4	0	0	0	0	510	3	
5	0	0	0	0	512	4	
6	0	0	0	0	512	8	
7	0	0	0	0	512	3	
8	0	0	0	0	508	3	
9	0	0	0	0	510	2	
10	0	0	0	0	510	0	
11	0	0	0	0	510	3	
12	0	0	0	0	512	3	
13	0	0	0	0	511	4	
14	0	0	0	0	512	8	
15	0	0	0	0	511	3	
0	0	0	0	0	509	3	
1	0	0	0	0	509	2	
2	0	0	0	0	511	0	
3	0	0	0	0	510	3	
4	0	0	0	0	510	3	
5	0	0	0	0	511	4	
6	0	0	0	0	508	8	
7	0	0	0	0	511	3	
8	0	0	0	0	511	3	
9	0	0	0	0	510	2	
10	0	0	0	0	509	0	
11	0	0	0	0	510	3	
12	0	0	0	0	512	3	
13	0	0	0	0	511	4	
14	0	0	0	0	512	8	
15	0	0	0	0	509	3	
0	0	0	0	0	510	3	
1	0	0	0	0	509	2	
2	0	0	0	0	511	0	
3	0	0	0	0	512	3	
4	0	0	0	0	511	3	
5	0	0	0	0	511	4	
6	0	0	0	0	512	8	
7	0	0	0	0	511	3	
8	0	0	0	0	510	3	
9	0	0	0	0	509	2	
10	0	0	0	0	511	0	
11	0	0	0	0	511	3	
12	0	0	0	0	510	3	
13	0	0	0	0	508	4	
14	0	0	0	0	512	8	
15	0	0	0	0	512	3	
0	0	0	0	0	510	3	
1	0	0	0	0	510	2	
2	0	0	0	0	511	0	
3	0	0	0	0	511	3	
4	0	0	0	0	511	3	
5	0	0	0	0	511	4	
6	0	0	0	0	511	8	
7	0	0	0	0	511	3	
8	0	0	0	0	511	3	
9	0	0	0	0	511	2	
10	0	0	0	0	509	0	
11	0	0	0	0	511	3	
12	0	0	0	0	509	3	
13	0	0	0	0	510	4	
14	0	0	0	0	512	8	
15	0	0	0	0	512	3	
0	0	0	0	0	511	3	
1	0	0	0	0	512	2	
2	0	0	0	0	510	0	
3	0	0	0	0	510	3	
4	0	0	0	0	513	3	
5	0	0	0	0	511	4	
6	0	0	0	0	508	8	
7	0	0	0	0	512	3	
8	0	0	0	0	509	3	
9	0	0	0	0	510	2	
10	0	0	0	0	512	0	
11	0	0	0	0	513	3	
12	0	0	0	0	510	3	
13	0	0	0	0	510	4	
14	0	0	0	0	511	8	
15	0	0	0	0	511	3	
0	0	0	0	0	509	3	
1	0	0	0	0	510	2	
2	0	0	0	0	511	0	
3	0	0	0	0	511	3	
4	0	0	0	0	511	3	
5	0	0	0	0	510	4	
6	0	0	0	0	510	8	
7	0	0	0	0	511	3	
8	0	0	0	0	512	3	
9	0	0	0	0	509	2	
10	0	0	0	0	509	0	
11	0	0	0	0	511	3	
12	0	0	0	0	511	3	
13	0	0	0	0	511	4	
14	0	0	0	0	511	8	
15	0	0	0	0	512	3	
0	0	0	0	0	513	3	
1	0	0	0	0	511	2	
2	0	0	0	0	509	0	
3	0	0	0	0	510	3	
4	0	0	0	0	507	3	
5	0	0	0	0	510	4	
6	0	0	0	0	508	8	
7	0	0	0	0	509	3	
8	0	0	0	0	508	3	
9	0	0	0	0	509	2	
10	0	0	0	0	511	0	
11	0	0	0	0	510	3	
12	0	0	0	0	510	3	
13	0	0	0	0	510	4	
14	0	0	0	0	510	8	
15	0	0	0	0	513	3	
0	0	0	0	0	513	3	
1	0	0	0	0	512	2	
2	0	0	0	0	509	0	
3	0	0	0	0	510	3	
4	0	0	0	0	511	3	
5	0	0	0	0	509	4	
6	0	0	0	0	508	8	
7	0	0	0	0	510	3	
8	0	0	0	0	510	3	
9	0	0	0	0	510	2	
10	0	0	0	0	511	0	
11	0	0	0	0	509	3	
12	0	0	0	0	510	3	
13	0	0	0	0	510	4	
14	0	0	0	0	514	8	
15	0	0	0	0	513	3	
0	0	0	0	0	512	3	
1	0	0	0	0	510	2	
2	0	0	0	0	510	0	
3	0	0	0	0	511	3	
4	0	0	0	0	512	3	
5	0	0	0	0	510	4	
6	0	0	0	0	511	8	
7	0	0	0	0	511	3	
8	0	0	0	0	508	3	
9	0	0	0	0	508	2	
10	0	0	0	0	509	0	
11	0	0	0	0	512	3	
12	0	0	0	0	511	3	
13	0	0	0	0	510	4	
14	0	0	0	0	511	8	
15	0	0	0	0	512	3	
0	0	0	0	0	512	3	
1	0	0	0	0	512	2	
2	0	0	0	0	511	0	
3	0	0	0	0	509	3	
4	0	0	0	0	510	3	
5	0	0	0	0	509	4	
6	0	0	0	0	510	8	
7	0	0	0	0	512	3	
8	0	0	0	0	510	3	
9	0	0	0	0	510	2	
10	0	0	0	0	514	0	
11	0	0	0	0	512	3	
12	0	0	0	0	512	3	
13	0	0	0	0	511	4	
14	0	0	0	0	512	8	
15	0	0	0	0	511	3	
0	0	0	0	0	513	3	
1	0	0	0	0	511	2	
2	0	0	0	0	511	0	
3	0	0	0	0	512	3	
4	0	0	0	0	511	3	
5	0	0	0	0	510	4	
6	0	0	0	0	510	8	
7	0	0	0	0	511	3	
8	0	0	0	0	510	3	
9	0	0	0	0	510	2	
10	0	0	0	0	510	0	
11	0	0	0	0	508	3	
12	0	0	0	0	508	3	
13	0	0	0	0	510	4	
14	0	0	0	0	510	8	
15	0	0	0	0	512	3	
0	0	0	0	0	512	3	
1	0	0	0	0	512	2	
2	0	0	0	0	512	0	
3	0	0	0	0	509	3	
4	0	0	0	0	510	3	
5	0	0	0	0	512	4	
6	0	0	0	0	509	8	
7	0	0	0	0	510	3	
8	0	0	0	0	510	3	
9	0	0	0	0	509	2	
10	0	0	0	0	512	0	
11	0	0	0	0	512	3	
12	0	0	0	0	512	3	
13	0	0	0	0	510	4	
14	0	0	0	0	512	8	
15	0	0	0	0	512	3	
0	0	0	0	0	510	3	
1	0	0	0	0	511	2	
2	0	0	0	0	512	0	
3	0	0	0	0	512	3	
4	0	0	0	0	511	3	
5	0	0	0	0	508	4	
6	0	0	0	0	509	8	
7	0	0	0	0	510	3	
8	0	0	0	0	509	3	
9	0	0	0	0	510	2	
10	0	0	0	0	509	0	
11	0	0	0	0	509	3	
12	0	0	0	0	510	3	
13	0	0	0	0	512	4	
14	0	0	0	0	511	8	
15	0	0	0	0	510	3	
0	0	0	0	0	510	3	
1	0	0	0	0	511	2	
2	0	0	0	0	510	0	
3	0	0	0	0	511	3	
4	0	0	0	0	510	3	
5	0	0	0	0	511	4	
6	0	0	0	0	511	8	
7	0	0	0	0	511	3	
8	0	0	0	0	510	3	
9	0	0	0	0	508	2	
10	0	0	0	0	509	0	
11	0	0	0	0	511	3	
12	0	0	0	0	511	3	
13	0	0	0	0	511	4	
14	0	0	0	0	511	8	
15	0	0	0	0	509	3	
0	0	0	0	0	511	3	
1	0	0	0	0	510	2	
2	0	0	0	0	511	0	
3	0	0	0	0	512	3	
4	0	0	0	0	511	3	
5	0	0	0	0	511	4	
6	0	0	0	0	510	8	
7	0	0	0	0	510	3	
8	0	0	0	0	512	3	
9	0	0	0	0	513	2	
10	0	0	0	0	510	0	
11	0	0	0	0	510	3	
12	0	0	0	0	509	3	
13	0	0	0	0	511	4	
14	0	0	0	0	510	8	
15	0	0	0	0	512	3	
0	0	0	0	0	513	3	
1	0	0	0	0	509	2	
2	0	0	0	0	511	0	
3	0	0	0	0	509	3	
4	0	0	0	0	509	3	
5	0	0	0	0	509	4	
6	0	0	0	0	512	8	
7	0	0	0	0	511	3	
8	0	0	0	0	510	3	
9	0	0	0	0	511	2	
10	0	0	0	0	511	0	
11	0	0	0	0	513	3	
12	0	0	0	0	509	3	
13	0	0	0	0	511	4	
14	0	0	0	0	510	8	
15	0	0	0	0	513	3	
0	0	0	0	0	510	3	
1	0	0	0	0	510	2	
2	0	0	0	0	510	0	
3	0	0	0	0	511	3	
4	0	0	0	0	511	3	
5	0	0	0	0	512	4	
6	0	0	0	0	512	8	
7	0	0	0	0	510	3	
8	0	0	0	0	511	3	
9	0	0	0	0	510	2	
10	0	0	0	0	510	0	
11	0	0	0	0	510	3	
12	0	0	0	0	511	3	
13	0	0	0	0	510	4	
14	0	0	0	0	512	8	
15	0	0	0	0	508	3	
0	0	0	0	0	511	3	
1	0	0	0	0	511	2	
2	0	0	0	0	512	0	
3	0	0	0	0	510	3	
4	0	0	0	0	509	3	
5	0	0	0	0	510	4	
6	0	0	0	0	510	8	
7	0	0	0	0	512	3	
8	0	0	0	0	510	3	
9	0	0	0	0	512	2	
10	0	0	0	0	511	0	
11	0	0	0	0	511	3	
12	0	0	0	0	511	3	
13	0	0	0	0	512	4	
14	0	0	0	0	508	8	
15	0	0	0	0	509	3	
0	0	0	0	0	511	3	
1	0	0	0	0	511	2	
2	0	0	0	0	511	0	
3	0	0	0	0	512	3	
4	0	0	0	0	511	3	
5	0	0	0	0	510	4	
6	0	0	0	0	511	8	
7	0	0	0	0	512	3	
8	0	0	0	0	509	3	
9	0	0	0	0	511	2	
10	0	0	0	0	509	0	
11	0	0	0	0	511	3	
12	0	0	0	0	512	3	
13	0	0	0	0	510	4	
14	0	0	0	0	510	8	
15	0	0	0	0	511	3	
0	0	0	0	0	510	3	
1	0	0	0	0	510	2	
2	0	0	0	0	512	0	
3	0	0	0	0	513	3	
4	0	0	0	0	511	3	
5	0	0	0	0	511	4	
6	0	0	0	0	511	8	
7	0	0	0	0	511	3	
8	0	0	0	0	511	3	
9	0	0	0	0	512	2	
10	0	0	0	0	511	0	
11	0	0	0	0	511	3	
12	0	0	0	0	510	3	
13	0	0	0	0	508	4	
14	0	0	0	0	510	8	
15	0	0	0	0	509	3	
0	0	0	0	0	511	3	
1	0	0	0	0	508	2	
2	0	0	0	0	511	0	
3	0	0	0	0	509	3	
4	0	0	0	0	509	3	
5	0	0	0	0	511	4	
6	0	0	0	0	511	8	
7	0	0	0	0	513	3	
8	0	0	0	0	513	3	
9	0	0	0	0	510	2	
10	0	0	0	0	511	0	
11	0	0	0	0	511	3	
12	0	0	0	0	509	3	
13	0	0	0	0	510	4	
14	0	0	0	0	507	8	
15	0	0	0	0	509	3	
0	0	0	0	0	512	3	
1	0	0	0	0	509	2	
2	0	0	0	0	511	0	
3	0	0	0	0	510	3	
4	0	0	0	0	511	3	
5	0	0	0	0	513	4	
6	0	0	0	0	511	8	
7	0	0	0	0	510	3	
8	0	0	0	0	512	3	
9	0	0	0	0	512	2	
10	0	0	0	0	510	0	
11	0	0	0	0	510	3	
12	0	0	0	0	509	3	
13	0	0	0	0	511	4	
14	0	0	0	0	511	8	
15	0	0	0	0	509	3	
0	0	0	0	0	512	3	
1	0	0	0	0	512	2	
2	0	0	0	0	511	0	
3	0	0	0	0	509	3	
4	0	0	0	0	511	3	
5	0	0	0	0	510	4	
6	0	0	0	0	511	8	
7	0	0	0	0	511	3	
8	0	0	0	0	510	3	
9	0	0	0	0	508	2	
10	0	0	0	0	511	0	
11	0	0	0	0	514	3	
12	0	0	0	0	511	3	
13	0	0	0	0	511	4	
14	0	0	0	0	511	8	
15	0	0	0	0	510	3	
0	0	0	0	0	511	3	
1	0	0	0	0	508	2	
2	0	0	0	0	512	0	
3	0	0	0	0	511	3	
4	0	0	0	0	511	3	
5	0	0	0	0	512	4	
6	0	0	0	0	514	8	
7	0	0	0	0	510	3	
8	0	0	0	0	512	3	
9	0	0	0	0	508	2	
10	0	0	0	0	509	0	
11	0	0	0	0	510	3	
12	0	0	0	0	512	3	
13	0	0	0	0	510	4	
14	0	0	0	0	510	8	
15	0	0	0	0	509	3	
0	0	0	0	0	509	3	
1	0	0	0	0	507	2	
2	0	0	0	0	509	0	
3	0	0	0	0	509	3	
4	0	0	0	0	510	3	
5	0	0	0	0	511	4	
6	0	0	0	0	511	8	
7	0	0	0	0	511	3	
8	0	0	0	0	512	3	
9	0	0	0	0	510	2	
10	0	0	0	0	510	0	
11	0	0	0	0	511	3	
12	0	0	0	0	510	3	
13	0	0	0	0	512	4	
14	0	0	0	0	512	8	
15	0	0	0	0	511	3	
0	0	0	0	0	509	3	
1	0	0	0	0	510	2	
2	0	0	0	0	511	0	
3	0	0	0	0	513	3	
4	0	0	0	0	510	3	
5	0	0	0	0	511	4	
6	0	0	0	0	511	8	
7	0	0	0	0	511	3	
8	0	0	0	0	510	3	
9	0	0	0	0	509	2	
10	0	0	0	0	510	0	
11	0	0	0	0	512	3	
12	0	0	0	0	511	3	
13	0	0	0	0	510	4	
14	0	0	0	0	511	8	
15	0	0	0	0	511	3	
0	0	0	0	0	510	3	
1	0	0	0	0	510	2	
2	0	0	0	0	509	0	
3	0	0	0	0	508	3	
4	0	0	0	0	511	3	
5	0	0	0	0	513	4	
6	0	0	0	0	511	8	
7	0	0	0	0	511	3	
8	0	0	0	0	510	3	
9	0	0	0	0	510	2	
10	0	0	0	0	511	0	
11	0	0	0	0	511	3	
12	0	0	0	0	511	3	
13	0	0	0	0	511	4	
14	0	0	0	0	510	8	
15	0	0	0	0	511	3	
0	0	0	0	0	510	3	
1	0	0	0	0	512	2	
2	0	0	0	0	511	0	
3	0	0	0	0	509	3	
4	0	0	0	0	509	3	
5	0	0	0	0	511	4	
6	0	0	0	0	510	8	
7	0	0	0	0	510	3	
8	0	0	0	0	512	3	
9	0	0	0	0	510	2	
10	0	0	0	0	510	0	
11	0	0	0	0	511	3	
12	0	0	0	0	511	3	
13	0	0	0	0	510	4	
14	0	0	0	0	510	8	
15	0	0	0	0	509	3	
0	0	0	0	0	512	3	
1	0	0	0	0	511	2	
2	0	0	0	0	512	0	
3	0	0	0	0	511	3	
4	0	0	0	0	511	3	
5	0	0	0	0	510	4	
6	0	0	0	0	511	8	
7	0	0	0	0	511	3	
8	0	0	0	0	510	3	
9	0	0	0	0	509	2	
10	0	0	0	0	512	0	
11	0	0	0	0	511	3	
12	0	0	0	0	510	3	
13	0	0	0	0	512	4	
14	0	0	0	0	511	8	
15	0	0	0	0	511	3	
0	0	0	0	0	511	3	
1	0	0	0	0	511	2	
2	0	0	0	0	508	0	
3	0	0	0	0	510	3	
4	0	0	0	0	511	3	
5	0	0	0	0	508	4	
6	0	0	0	0	513	8	
7	0	0	0	0	511	3	
8	0	0	0	0	511	3	
9	0	0	0	0	511	2	
10	0	0	0	0	512	0	
11	0	0	0	0	511	3	
12	0	0	0	0	510	3	
13	0	0	0	0	510	4	
14	0	0	0	0	511	8	
15	0	0	0	0	511	3	
0	0	0	0	0	510	3	
1	0	0	0	0	511	2	
2	0	0	0	0	511	0	
3	0	0	0	0	510	3	
4	0	0	0	0	511	3	
5	0	0	0	0	510	4	
6	0	0	0	0	510	8	
7	0	0	0	0	511	3	
8	0	0	0	0	512	3	
9	0	0	0	0	510	2	
10	0	0	0	0	511	0	
11	0	0	0	0	511	3	
12	0	0	0	0	512	3	
13	0	0	0	0	510	4	
14	0	0	0	0	511	8	
15	0	0	0	0	509	3	
0	0	0	0	0	512	3	
1	0	0	0	0	510	2	
2	0	0	0	0	511	0	
3	0	0	0	0	511	3	
4	0	0	0	0	512	3	
5	0	0	0	0	510	4	
6	0	0	0	0	507	8	
7	0	0	0	0	511	3	
8	0	0	0	0	510	3	
9	0	0	0	0	512	2	
10	0	0	0	0	510	0	
11	0	0	0	0	511	3	
12	0	0	0	0	511	3	
13	0	0	0	0	512	4	
14	0	0	0	0	511	8	
15	0	0	0	0	510	3	
0	0	0	0	0	510	3	
1	0	0	0	0	510	2	
2	0	0	0	0	511	0	
3	0	0	0	0	508	3	
4	0	0	0	0	510	3	
5	0	0	0	0	509	4	
6	0	0	0	0	511	8	
7	0	0	0	0	510	3	
8	0	0	0	0	511	3	
9	0	0	0	0	511	2	
10	0	0	0	0	512	0	
11	0	0	0	0	508	3	
12	0	0	0	0	511	3	
13	0	0	0	0	510	4	
14	0	0	0	0	511	8	
15	0	0	0	0	510	3	
0	0	0	0	0	511	3	
1	0	0	0	0	511	2	
2	0	0	0	0	510	0	
3	0	0	0	0	511	3	
4	0	0	0	0	511	3	
5	0	0	0	0	510	4	
6	0	0	0	0	512	8	
7	0	0	0	0	510	3	
8	0	0	0	0	511	3	
9	0	0	0	0	508	2	
10	0	0	0	0	510	0	
11	0	0	0	0	510	3	
12	0	0	0	0	512	3	
13	0	0	0	0	511	4	
14	0	0	0	0	511	8	
15	0	0	0	0	511	3	
0	0	0	0	0	511	3	
1	0	0	0	0	512	2	
2	0	0	0	0	513	0	
3	0	0	0	0	510	3	
4	0	0	0	0	511	3	
5	0	0	0	0	510	4	
6	0	0	0	0	511	8	
7	0	0	0	0	510	3	
8	0	0	0	0	510	3	
9	0	0	0	0	511	2	
10	0	0	0	0	512	0	
11	0	0	0	0	511	3	
12	0	0	0	0	511	3	
13	0	0	0	0	510	4	
14	0	0	0	0	511	8	
15	0	0	0	0	509	3	
0	0	0	0	0	510	3	
1	0	0	0	0	511	2	
2	0	0	0	0	512	0	
3	0	0	0	0	509	3	
4	0	0	0	0	511	3	
5	0	0	0	0	511	4	
6	0	0	0	0	510	8	
7	0	0	0	0	511	3	
8	0	0	0	0	511	3	
9	0	0	0	0	511	2	
10	0	0	0	0	512	0	
11	0	0	0	0	510	3	
12	0	0	0	0	512	3	
13	0	0	0	0	511	4	
14	0	0	0	0	511	8	
15	0	0	0	0	509	3	
0	0	0	0	0	510	3	
1	0	0	0	0	511	2	
2	0	0	0	0	511	0	
3	0	0	0	0	513	3	
4	0	0	0	0	512	3	
5	0	0	0	0	510	4	
6	0	0	0	0	510	8	
7	0	0	0	0	511	3	
8	0	0	0	0	509	3	
9	0	0	0	0	511	2	
10	0	0	0	0	511	0	
11	0	0	0	0	508	3	
12	0	0	0	0	511	3	
13	0	0	0	0	511	4	
14	0	0	0	0	511	8	
15	0	0	0	0	510	3	
0	0	0	0	0	510	3	
1	0	0	0	0	513	2	
2	0	0	0	0	511	0	
3	0	0	0	0	510	3	
4	0	0	0	0	509	3	
5	0	0	0	0	510	4	
6	0	0	0	0	510	8	
7	0	0	0	0	510	3	
8	0	0	0	0	512	3	
9	0	0	0	0	511	2	
10	0	0	0	0	508	0	
11	0	0	0	0	510	3	
12	0	0	0	0	511	3	
13	0	0	0	0	510	4	
14	0	0	0	0	511	8	
15	0	0	0	0	511	3	
0	0	0	0	0	512	3	
1	0	0	0	0	511	2	
2	0	0	0	0	511	0	
3	0	0	0	0	512	3	
4	0	0	0	0	511	3	
5	0	0	0	0	511	4	
6	0	0	0	0	513	8	
7	0	0	0	0	511	3	
8	0	0	0	0	510	3	
9	0	0	0	0	508	2	
10	0	0	0	0	510	0	
11	0	0	0	0	509	3	
12	0	0	0	0	509	3	
13	0	0	0	0	509	4	
14	0	0	0	0	511	8	
15	0	0	0	0	511	3	
0	0	0	0	0	511	3	
1	0	0	0	0	511	2	
2	0	0	0	0	512	0	
3	0	0	0	0	512	3	
4	0	0	0	0	511	3	
5	0	0	0	0	511	4	
6	0	0	0	0	511	8	
7	0	0	0	0	508	3	
8	0	0	0	0	508	3	
9	0	0	0	0	509	2	
10	0	0	0	0	509	0	
11	0	0	0	0	511	3	
12	0	0	0	0	510	3	
13	0	0	0	0	512	4	
14	0	0	0	0	511	8	
15	0	0	0	0	511	3	
0	0	0	0	0	511	3	
1	0	0	0	0	511	2	
2	0	0	0	0	511	0	
3	0	0	0	0	511	3	
4	0	0	0	0	513	3	
5	0	0	0	0	512	4	
6	0	0	0	0	508	8	
7	0	0	0	0	510	3	
8	0	0	0	0	509	3	
9	0	0	0	0	510	2	
10	0	0	0	0	511	0	
11	0	0	0	0	509	3	
12	0	0	0	0	509	3	
13	0	0	0	0	510	4	
14	0	0	0	0	511	8	
15	0	0	0	0	511	3	
0	0	0	0	0	510	3	
1	0	0	0	0	512	2	
2	0	0	0	0	510	0	
3	0	0	0	0	510	3	
4	0	0	0	0	512	3	
5	0	0	0	0	513	4	
6	0	0	0	0	511	8	
7	0	0	0	0	510	3	
8	0	0	0	0	511	3	
9	0	0	0	0	510	2	
10	0	0	0	0	509	0	
11	0	0	0	0	511	3	
12	0	0	0	0	511	3	
13	0	0	0	0	511	4	
14	0	0	0	0	512	8	
15	0	0	0	0	511	3	
0	0	0	0	0	510	3	
1	0	0	0	0	511	2	
2	0	0	0	0	510	0	
3	0	0	0	0	510	3	
4	0	0	0	0	510	3	
5	0	0	0	0	511	4	
6	0	0	0	0	512	8	
7	0	0	0	0	512	3	
8	0	0	0	0	511	3	
9	0	0	0	0	511	2	
10	0	0	0	0	511	0	
11	0	0	0	0	508	3	
12	0	0	0	0	510	3	
13	0	0	0	0	511	4	
14	0	0	0	0	508	8	
15	0	0	0	0	508	3	
0	0	0	0	0	510	3	
1	0	0	0	0	511	2	
2	0	0	0	0	512	0	
3	0	0	0	0	512	3	
4	0	0	0	0	511	3	
5	0	0	0	0	512	4	
6	0	0	0	0	512	8	
7	0	0	0	0	511	3	
8	0	0	0	0	511	3	
9	0	0	0	0	510	2	
10	0	0	0	0	512	0	
11	0	0	0	0	511	3	
12	0	0	0	0	512	3	
13	0	0	0	0	511	4	
14	0	0	0	0	510	8	
15	0	0	0	0	509	3	
0	0	0	0	0	510	3	
1	0	0	0	0	511	2	
2	0	0	0	0	512	0	
3	0	0	0	0	511	3	
4	0	0	0	0	511	3	
5	0	0	0	0	511	4	
6	0	0	0	0	511	8	
7	0	0	0	0	511	3	
8	0	0	0	0	512	3	
9	0	0	0	0	511	2	
10	0	0	0	0	510	0	
11	0	0	0	0	511	3	
12	0	0	0	0	508	3	
13	0	0	0	0	511	4	
14	0	0	0	0	510	8	
15	0	0	0	0	508	3	
0	0	0	0	0	510	3	
1	0	0	0	0	510	2	
2	0	0	0	0	512	0	
3	0	0	0	0	512	3	
4	0	0	0	0	512	3	
5	0	0	0	0	511	4	
6	0	0	0	0	511	8	
7	0	0	0	0	510	3	
8	0	0	0	0	511	3	
9	0	0	0	0	511	2	
10	0	0	0	0	510	0	
11	0	0	0	0	511	3	
12	0	0	0	0	511	3	
13	0	0	0	0	511	4	
14	0	0	0	0	511	8	
15	0	0	0	0	510	3	
0	0	0	0	0	510	3	
1	0	0	0	0	512	2	
2	0	0	0	0	510	0	
3	0	0	0	0	512	3	
4	0	0	0	0	511	3	
5	0	0	0	0	512	4	
6	0	0	0	0	509	8	
7	0	0	0	0	510	3	
8	0	0	0	0	510	3	
9	0	0	0	0	511	2	
10	0	0	0	0	512	0	
11	0	0	0	0	509	3	
12	0	0	0	0	512	3	
13	0	0	0	0	511	4	
14	0	0	0	0	510	8	
15	0	0	0	0	511	3	
0	0	0	0	0	512	3	
1	0	0	0	0	510	2	
2	0	0	0	0	510	0	
3	0	0	0	0	510	3	
4	0	0	0	0	509	3	
5	0	0	0	0	510	4	
6	0	0	0	0	511	8	
7	0	0	0	0	512	3	
8	0	0	0	0	509	3	
9	0	0	0	0	511	2	
10	0	0	0	0	511	0	
11	0	0	0	0	510	3	
12	0	0	0	0	512	3	
13	0	0	0	0	512	4	
14	0	0	0	0	512	8	
15	0	0	0	0	510	3	
0	0	0	0	0	511	3	
1	0	0	0	0	511	2	
2	0	0	0	0	511	0	
3	0	0	0	0	512	3	
4	0	0	0	0	511	3	
5	0	0	0	0	510	4	
6	0	0	0	0	509	8	
7	0	0	0	0	511	3	
8	0	0	0	0	512	3	
9	0	0	0	0	511	2	
10	0	0	0	0	513	0	
11	0	0	0	0	510	3	
12	0	0	0	0	511	3	
13	0	0	0	0	510	4	
14	0	0	0	0	510	8	
15	0	0	0	0	510	3	
0	0	0	0	0	510	3	
1	0	0	0	0	509	2	
2	0	0	0	0	509	0	
3	0	0	0	0	510	3	
4	0	0	0	0	513	3	
5	0	0	0	0	509	4	
6	0	0	0	0	510	8	
7	0	0	0	0	510	3	
8	0	0	0	0	512	3	
9	0	0	0	0	511	2	
10	0	0	0	0	511	0	
11	0	0	0	0	510	3	
12	0	0	0	0	511	3	
13	0	0	0	0	511	4	
14	0	0	0	0	513	8	
15	0	0	0	0	511	3	
0	0	0	0	0	509	3	
1	0	0	0	0	509	2	
2	0	0	0	0	511	0	
3	0	0	0	0	510	3	
4	0	0	0	0	510	3	
5	0	0	0	0	512	4	
6	0	0	0	0	510	8	
7	0	0	0	0	512	3	
8	0	0	0	0	511	3	
9	0	0	0	0	511	2	
10	0	0	0	0	511	0	
11	0	0	0	0	511	3	
12	0	0	0	0	511	3	
13	0	0	0	0	510	4	
14	0	0	0	0	511	8	
15	0	0	0	0	509	3	
0	0	0	0	0	510	3	
1	0	0	0	0	511	2	
2	0	0	0	0	512	0	
3	0	0	0	0	510	3	
4	0	0	0	0	510	3	
5	0	0	0	0	511	4	
6	0	0	0	0	509	8	
7	0	0	0	0	509	3	
8	0	0	0	0	509	3	
9	0	0	0	0	511	2	
10	0	0	0	0	509	0	
11	0	0	0	0	511	3	
12	0	0	0	0	511	3	
13	0	0	0	0	510	4	
14	0	0	0	0	512	8	
15	0	0	0	0	511	3	
0	0	0	0	0	510	3	
1	0	0	0	0	511	2	
2	0	0	0	0	510	0	
3	0	0	0	0	511	3	
4	0	0	0	0	510	3	
5	0	0	0	0	510	4	
6	0	0	0	0	509	8	
7	0	0	0	0	510	3	
8	0	0	0	0	512	3	
9	0	0	0	0	509	2	
10	0	0	0	0	509	0	
11	0	0	0	0	512	3	
12	0	0	0	0	512	3	
13	0	0	0	0	512	4	
14	0	0	0	0	510	8	
15	0	0	0	0	508	3	
0	0	0	0	0	509	3	
1	0	0	0	0	511	2	
2	0	0	0	0	511	0	
3	0	0	0	0	511	3	
4	0	0	0	0	513	3	
5	0	0	0	0	511	4	
6	0	0	0	0	510	8	
7	0	0	0	0	512	3	
8	0	0	0	0	512	3	
9	0	0	0	0	510	2	
10	0	0	0	0	511	0	
11	0	0	0	0	509	3	
12	0	0	0	0	510	3	
13	0	0	0	0	513	4	
14	0	0	0	0	509	8	
15	0	0	0	0	513	3	
0	0	0	0	0	510	3	
1	0	0	0	0	509	2	
2	0	0	0	0	510	0	
3	0	0	0	0	512	3	
4	0	0	0	0	511	3	
5	0	0	0	0	508	4	
6	0	0	0	0	510	8	
7	0	0	0	0	508	3	
8	0	0	0	0	510	3	
9	0	0	0	0	511	2	
10	0	0	0	0	511	0	
11	0	0	0	0	510	3	
12	0	0	0	0	510	3	
13	0	0	0	0	511	4	
14	0	0	0	0	511	8	
15	0	0	0	0	510	3	
0	0	0	0	0	510	3	
1	0	0	0	0	511	2	
2	0	0	0	0	510	0	
3	0	0	0	0	512	3	
4	0	0	0	0	511	3	
5	0	0	0	0	511	4	
6	0	0	0	0	510	8	
7	0	0	0	0	510	3	
8	0	0	0	0	511	3	
9	0	0	0	0	510	2	
10	0	0	0	0	511	0	
11	0	0	0	0	511	3	
12	0	0	0	0	511	3	
13	0	0	0	0	512	4	
14	0	0	0	0	511	8	
15	0	0	0	0	509	3	
0	0	0	0	0	511	3	
1	0	0	0	0	513	2	
2	0	0	0	0	512	0	
3	0	0	0	0	510	3	
4	0	0	0	0	509	3	
5	0	0	0	0	510	4	
6	0	0	0	0	511	8	
7	0	0	0	0	511	3	
8	0	0	0	0	512	3	
9	0	0	0	0	512	2	
10	0	0	0	0	511	0	
11	0	0	0	0	510	3	
12	0	0	0	0	510	3	
13	0	0	0	0	510	4	
14	0	0	0	0	510	8	
15	0	0	0	0	514	3	
0	0	0	0	0	511	3	
1	0	0	0	0	511	2	
2	0	0	0	0	513	0	
3	0	0	0	0	511	3	
4	0	0	0	0	510	3	
5	0	0	0	0	511	4	
6	0	0	0	0	510	8	
7	0	0	0	0	510	3	
8	0	0	0	0	511	3	
9	0	0	0	0	510	2	
10	0	0	0	0	511	0	
11	0	0	0	0	510	3	
12	0	0	0	0	510	3	
13	0	0	0	0	510	4	
14	0	0	0	0	510	8	
15	0	0	0	0	510	3	
0	0	0	0	0	510	3	
1	0	0	0	0	511	2	
2	0	0	0	0	512	0	
3	0	0	0	0	509	3	
4	0	0	0	0	512	3	
5	0	0	0	0	511	4	
6	0	0	0	0	511	8	
7	0	0	0	0	511	3	
8	0	0	0	0	510	3	
9	0	0	0	0	509	2	
10	0	0	0	0	509	0	
11	0	0	0	0	510	3	
12	0	0	0	0	511	3	
13	0	0	0	0	511	4	
14	0	0	0	0	511	8	
15	0	0	0	0	510	3	
0	0	0	0	0	511	3	
1	0	0	0	0	511	2	
2	0	0	0	0	511	0	
3	0	0	0	0	511	3	
4	0	0	0	0	511	3	
5	0	0	0	0	512	4	
6	0	0	0	0	511	8	
7	0	0	0	0	511	3	
8	0	0	0	0	510	3	
9	0	0	0	0	511	2	
10	0	0	0	0	511	0	
11	0	0	0	0	511	3	
12	0	0	0	0	510	3	
13	0	0	0	0	511	4	
14	0	0	0	0	511	8	
15	0	0	0	0	510	3	
0	0	0	0	0	511	3	
1	0	0	0	0	512	2	
2	0	0	0	0	511	0	
3	0	0	0	0	511	3	
4	0	0	0	0	511	3	
5	0	0	0	0	510	4	
6	0	0	0	0	512	8	
7	0	0	0	0	510	3	
8	0	0	0	0	509	3	
9	0	0	0	0	509	2	
10	0	0	0	0	510	0	
11	0	0	0	0	512	3	
12	0	0	0	0	512	3	
13	0	0	0	0	511	4	
14	0	0	0	0	512	8	
15	0	0	0	0	511	3	
0	0	0	0	0	511	3	
1	0	0	0	0	511	2	
2	0	0	0	0	509	0	
3	0	0	0	0	510	3	
4	0	0	0	0	512	3	
5	0	0	0	0	510	4	
6	0	0	0	0	509	8	
7	0	0	0	0	511	3	
8	0	0	0	0	511	3	
9	0	0	0	0	510	2	
10	0	0	0	0	511	0	
11	0	0	0	0	512	3	
12	0	0	0	0	509	3	
13	0	0	0	0	508	4	
14	0	0	0	0	512	8	
15	0	0	0	0	511	3	
0	0	0	0	0	508	3	
1	0	0	0	0	511	2	
2	0	0	0	0	511	0	
3	0	0	0	0	511	3	
4	0	0	0	0	511	3	
5	0	0	0	0	510	4	
6	0	0	0	0	510	8	
7	0	0	0	0	511	3	
8	0	0	0	0	511	3	
9	0	0	0	0	512	2	
10	0	0	0	0	511	0	
11	0	0	0	0	508	3	
12	0	0	0	0	511	3	
13	0	0	0	0	511	4	
14	0	0	0	0	511	8	
15	0	0	0	0	510	3	
0	0	0	0	0	510	3	
1	0	0	0	0	512	2	
2	0	0	0	0	511	0	
3	0	0	0	0	511	3	
4	0	0	0	0	511	3	
5	0	0	0	0	512	4	
6	0	0	0	0	511	8	
7	0	0	0	0	510	3	
8	0	0	0	0	510	3	
9	0	0	0	0	511	2	
10	0	0	0	0	509	0	
11	0	0	0	0	509	3	
12	0	0	0	0	511	3	
13	0	0	0	0	510	4	
14	0	0	0	0	511	8	
15	0	0	0	0	511	3	
0	0	0	0	0	510	3	
1	0	0	0	0	511	2	
2	0	0	0	0	510	0	
3	0	0	0	0	511	3	
4	0	0	0	0	512	3	
5	0	0	0	0	512	4	
6	0	0	0	0	511	8	
7	0	0	0	0	512	3	
8	0	0	0	0	511	3	
9	0	0	0	0	510	2	
10	0	0	0	0	510	0	
11	0	0	0	0	510	3	
12	0	0	0	0	511	3	
13	0	0	0	0	510	4	
14	0	0	0	0	511	8	
15	0	0	0	0	509	3	
0	0	0	0	0	511	3	
1	0	0	0	0	511	2	
2	0	0	0	0	510	0	
3	0	0	0	0	511	3	
4	0	0	0	0	513	3	
5	0	0	0	0	512	4	
6	0	0	0	0	510	8	
7	0	0	0	0	510	3	
8	0	0	0	0	512	3	
9	0	0	0	0	511	2	
10	0	0	0	0	509	0	
11	0	0	0	0	512	3	
12	0	0	0	0	511	3	
13	0	0	0	0	510	4	
14	0	0	0	0	511	8	
15	0	0	0	0	511	3	
0	0	0	0	0	511	3	
1	0	0	0	0	511	2	
2	0	0	0	0	509	0	
3	0	0	0	0	511	3	
4	0	0	0	0	511	3	
5	0	0	0	0	508	4	
6	0	0	0	0	512	8	
7	0	0	0	0	511	3	
8	0	0	0	0	509	3	
9	0	0	0	0	512	2	
10	0	0	0	0	510	0	
11	0	0	0	0	510	3	
12	0	0	0	0	511	3	
13	0	0	0	0	510	4	
14	0	0	0	0	510	8	
15	0	0	0	0	511	3	
0	0	0	0	0	511	3	
1	0	0	0	0	512	2	
2	0	0	0	0	511	0	
3	0	0	0	0	509	3	
4	0	0	0	0	511	3	
5	0	0	0	0	512	4	
6	0	0	0	0	512	8	
7	0	0	0	0	512	3	
8	0	0	0	0	510	3	
9	0	0	0	0	511	2	
10	0	0	0	0	511	0	
11	0	0	0	0	511	3	
12	0	0	0	0	510	3	
13	0	0	0	0	508	4	
14	0	0	0	0	510	8	
15	0	0	0	0	508	3	
0	0	0	0	0	510	3	
1	0	0	0	0	511	2	
2	0	0	0	0	510	0	
3	0	0	0	0	511	3	
4	0	0	0	0	513	3	
5	0	0	0	0	512	4	
6	0	0	0	0	512	8	
7	0	0	0	0	511	3	
8	0	0	0	0	510	3	
9	0	0	0	0	512	2	
10	0	0	0	0	510	0	
11	0	0	0	0	510	3	
12	0	0	0	0	511	3	
13	0	0	0	0	509	4	
14	0	0	0	0	508	8	
15	0	0	0	0	512	3	
0	0	0	0	0	509	3	
1	0	0	0	0	511	2	
2	0	0	0	0	511	0	
3	0	0	0	0	510	3	
4	0	0	0	0	512	3	
5	0	0	0	0	511	4	
6	0	0	0	0	511	8	
7	0	0	0	0	509	3	
8	0	0	0	0	510	3	
9	0	0	0	0	510	2	
10	0	0	0	0	512	0	
11	0	0	0	0	511	3	
12	0	0	0	0	511	3	
13	0	0	0	0	512	4	
14	0	0	0	0	511	8	
15	0	0	0	0	512	3	
0	0	0	0	0	511	3	
1	0	0	0	0	511	2	
2	0	0	0	0	512	0	
3	0	0	0	0	510	3	
4	0	0	0	0	509	3	
5	0	0	0	0	510	4	
6	0	0	0	0	512	8	
7	0	0	0	0	511	3	
8	0	0	0	0	511	3	
9	0	0	0	0	510	2	
10	0	0	0	0	511	0	
11	0	0	0	0	511	3	
12	0	0	0	0	512	3	
13	0	0	0	0	511	4	
14	0	0	0	0	512	8	
15	0	0	0	0	511	3	
0	0	0	0	0	510	3	
1	0	0	0	0	509	2	
2	0	0	0	0	510	0	
3	0	0	0	0	511	3	
4	0	0	0	0	512	3	
5	0	0	0	0	511	4	
6	0	0	0	0	511	8	
7	0	0	0	0	511	3	
8	0	0	0	0	512	3	
9	0	0	0	0	511	2	
10	0	0	0	0	510	0	
11	0	0	0	0	510	3	
12	0	0	0	0	511	3	
13	0	0	0	0	511	4	
14	0	0	0	0	511	8	
15	0	0	0	0	511	3	
0	0	0	0	0	510	3	
1	0	0	0	0	510	2	
2	0	0	0	0	513	0	
3	0	0	0	0	512	3	
4	0	0	0	0	510	3	
5	0	0	0	0	511	4	
6	0	0	0	0	511	8	
7	0	0	0	0	510	3	
8	0	0	0	0	510	3	
9	0	0	0	0	511	2	
10	0	0	0	0	507	0	
11	0	0	0	0	511	3	
12	0	0	0	0	511	3	
13	0	0	0	0	511	4	
14	0	0	0	0	511	8	
15	0	0	0	0	510	3	
0	0	0	0	0	512	3	
1	0	0	0	0	511	2	
2	0	0	0	0	510	0	
3	0	0	0	0	511	3	
4	0	0	0	0	511	3	
5	0	0	0	0	512	4	
6	0	0	0	0	510	8	
7	0	0	0	0	512	3	
8	0	0	0	0	512	3	
9	0	0	0	0	512	2	
10	0	0	0	0	512	0	
11	0	0	0	0	511	3	
12	0	0	0	0	511	3	
13	0	0	0	0	508	4	
14	0	0	0	0	511	8	
15	0	0	0	0	511	3	
0	0	0	0	0	510	3	
1	0	0	0	0	511	2	
2	0	0	0	0	511	0	
3	0	0	0	0	513	3	
4	0	0	0	0	510	3	
5	0	0	0	0	509	4	
6	0	0	0	0	508	8	
7	0	0	0	0	508	3	
8	0	0	0	0	510	3	
9	0	0	0	0	510	2	
10	0	0	0	0	509	0	
11	0	0	0	0	511	3	
12	0	0	0	0	510	3	
13	0	0	0	0	510	4	
14	0	0	0	0	511	8	
15	0	0	0	0	512	3	
0	0	0	0	0	511	3	
1	0	0	0	0	512	2	
2	0	0	0	0	511	0	
3	0	0	0	0	511	3	
4	0	0	0	0	510	3	
5	0	0	0	0	510	4	
6	0	0	0	0	510	8	
7	0	0	0	0	510	3	
8	0	0	0	0	512	3	
9	0	0	0	0	512	2	
10	0	0	0	0	512	0	
11	0	0	0	0	510	3	
12	0	0	0	0	512	3	
13	0	0	0	0	511	4	
14	0	0	0	0	510	8	
15	0	0	0	0	510	3	
0	0	0	0	0	511	3	
1	0	0	0	0	510	2	
2	0	0	0	0	510	0	
3	0	0	0	0	511	3	
4	0	0	0	0	508	3	
5	0	0	0	0	511	4	
6	0	0	0	0	511	8	
7	0	0	0	0	509	3	
8	0	0	0	0	510	3	
9	0	0	0	0	511	2	
10	0	0	0	0	510	0	
11	0	0	0	0	509	3	
12	0	0	0	0	511	3	
13	0	0	0	0	508	4	
14	0	0	0	0	512	8	
15	0	0	0	0	513	3	
0	0	0	0	0	512	3	
1	0	0	0	0	513	2	
2	0	0	0	0	511	0	
3	0	0	0	0	510	3	
4	0	0	0	0	511	3	
5	0	0	0	0	509	4	
6	0	0	0	0	509	8	
7	0	0	0	0	511	3	
8	0	0	0	0	509	3	
9	0	0	0	0	511	2	
10	0	0	0	0	510	0	
11	0	0	0	0	511	3	
12	0	0	0	0	511	3	
13	0	0	0	0	512	4	
14	0	0	0	0	510	8	
15	0	0	0	0	510	3	
0	0	0	0	0	509	3	
1	0	0	0	0	510	2	
2	0	0	0	0	510	0	
3	0	0	0	0	511	3	
4	0	0	0	0	512	3	
5	0	0	0	0	514	4	
6	0	0	0	0	510	8	
7	0	0	0	0	510	3	
8	0	0	0	0	510	3	
9	0	0	0	0	511	2	
10	0	0	0	0	511	0	
11	0	0	0	0	510	3	
12	0	0	0	0	511	3	
13	0	0	0	0	509	4	
14	0	0	0	0	510	8	
15	0	0	0	0	512	3	
0	0	0	0	0	512	3	
1	0	0	0	0	511	2	
2	0	0	0	0	511	0	
3	0	0	0	0	511	3	
4	0	0	0	0	511	3	
5	0	0	0	0	512	4	
6	0	0	0	0	511	8	
7	0	0	0	0	511	3	
8	0	0	0	0	511	3	
9	0	0	0	0	511	2	
10	0	0	0	0	510	0	
11	0	0	0	0	511	3	
12	0	0	0	0	510	3	
13	0	0	0	0	510	4	
14	0	0	0	0	510	8	
15	0	0	0	0	512	3	
0	0	0	0	0	513	3	
1	0	0	0	0	511	2	
2	0	0	0	0	509	0	
3	0	0	0	0	510	3	
4	0	0	0	0	511	3	
5	0	0	0	0	510	4	
6	0	0	0	0	509	8	
7	0	0	0	0	510	3	
8	0	0	0	0	511	3	
9	0	0	0	0	511	2	
10	0	0	0	0	512	0	
11	0	0	0	0	512	3	
12	0	0	0	0	511	3	
13	0	0	0	0	510	4	
14	0	0	0	0	511	8	
15	0	0	0	0	511	3	
0	0	0	0	0	510	3	
1	0	0	0	0	512	2	
2	0	0	0	0	512	0	
3	0	0	0	0	511	3	
4	0	0	0	0	510	3	
5	0	0	0	0	511	4	
6	0	0	0	0	510	8	
7	0	0	0	0	511	3	
8	0	0	0	0	511	3	
9	0	0	0	0	510	2	
10	0	0	0	0	512	0	
11	0	0	0	0	511	3	
12	0	0	0	0	510	3	
13	0	0	0	0	510	4	
14	0	0	0	0	511	8	
15	0	0	0	0	510	3	
0	0	0	0	0	510	3	
1	0	0	0	0	512	2	
2	0	0	0	0	512	0	
3	0	0	0	0	509	3	
4	0	0	0	0	510	3	
5	0	0	0	0	511	4	
6	0	0	0	0	510	8	
7	0	0	0	0	510	3	
8	0	0	0	0	510	3	
9	0	0	0	0	512	2	
10	0	0	0	0	511	0	
11	0	0	0	0	511	3	
12	0	0	0	0	510	3	
13	0	0	0	0	511	4	
14	0	0	0	0	512	8	
15	0	0	0	0	510	3	
0	0	0	0	0	512	3	
1	0	0	0	0	511	2	
2	0	0	0	0	511	0	
3	0	0	0	0	512	3	
4	0	0	0	0	512	3	
5	0	0	0	0	512	4	
6	0	0	0	0	510	8	
7	0	0	0	0	510	3	
8	0	0	0	0	511	3	
9	0	0	0	0	511	2	
10	0	0	0	0	511	0	
11	0	0	0	0	511	3	
12	0	0	0	0	510	3	
13	0	0	0	0	510	4	
14	0	0	0	0	510	8	
15	0	0	0	0	513	3	
0	0	0	0	0	511	3	
1	0	0	0	0	509	2	
2	0	0	0	0	510	0	
3	0	0	0	0	511	3	
4	0	0	0	0	509	3	
5	0	0	0	0	508	4	
6	0	0	0	0	508	8	
7	0	0	0	0	510	3	
8	0	0	0	0	510	3	
9	0	0	0	0	511	2	
10	0	0	0	0	511	0	
11	0	0	0	0	513	3	
12	0	0	0	0	510	3	
13	0	0	0	0	513	4	
14	0	0	0	0	511	8	
15	0	0	0	0	512	3	
0	0	0	0	0	510	3	
1	0	0	0	0	511	2	
2	0	0	0	0	510	0	
3	0	0	0	0	511	3	
4	0	0	0	0	512	3	
5	0	0	0	0	511	4	
6	0	0	0	0	510	8	
7	0	0	0	0	511	3	
8	0	0	0	0	511	3	
9	0	0	0	0	511	2	
10	0	0	0	0	510	0	
11	0	0	0	0	512	3	
12	0	0	0	0	511	3	
13	0	0	0	0	511	4	
14	0	0	0	0	509	8	
15	0	0	0	0	510	3	
0	0	0	0	0	510	3	
1	0	0	0	0	512	2	
2	0	0	0	0	511	0	
3	0	0	0	0	509	3	
4	0	0	0	0	510	3	
5	0	0	0	0	509	4	
6	0	0	0	0	511	8	
7	0	0	0	0	511	3	
8	0	0	0	0	508	3	
9	0	0	0	0	511	2	
10	0	0	0	0	511	0	
11	0	0	0	0	512	3	
12	0	0	0	0	513	3	
13	0	0	0	0	512	4	
14	0	0	0	0	507	8	
15	0	0	0	0	510	3	
0	0	0	0	0	512	3	
1	0	0	0	0	513	2	
2	0	0	0	0	510	0	
3	0	0	0	0	512	3	
4	0	0	0	0	512	3	
5	0	0	0	0	512	4	
6	0	0	0	0	511	8	
7	0	0	0	0	509	3	
8	0	0	0	0	510	3	
9	0	0	0	0	511	2	
10	0	0	0	0	511	0	
11	0	0	0	0	508	3	
12	0	0	0	0	506	3	
13	0	0	0	0	509	4	
14	0	0	0	0	510	8	
15	0	0	0	0	511	3	
0	0	0	0	0	511	3	
1	0	0	0	0	511	2	
2	0	0	0	0	512	0	
3	0	0	0	0	512	3	
4	0	0	0	0	510	3	
5	0	0	0	0	511	4	
6	0	0	0	0	511	8	
7	0	0	0	0	511	3	
8	0	0	0	0	510	3	
9	0	0	0	0	511	2	
10	0	0	0	0	511	0	
11	0	0	0	0	512	3	
12	0	0	0	0	512	3	
13	0	0	0	0	510	4	
14	0	0	0	0	510	8	
15	0	0	0	0	512	3	
0	0	0	0	0	513	3	
1	0	0	0	0	510	2	
2	0	0	0	0	510	0	
3	0	0	0	0	510	3	
4	0	0	0	0	511	3	
5	0	0	0	0	510	4	
6	0	0	0	0	512	8	
7	0	0	0	0	511	3	
8	0	0	0	0	511	3	
9	0	0	0	0	511	2	
10	0	0	0	0	511	0	
11	0	0	0	0	508	3	
12	0	0	0	0	510	3	
13	0	0	0	0	508	4	
14	0	0	0	0	508	8	
15	0	0	0	0	510	3	
0	0	0	0	0	511	3	
1	0	0	0	0	511	2	
2	0	0	0	0	511	0	
3	0	0	0	0	513	3	
4	0	0	0	0	512	3	
5	0	0	0	0	511	4	
6	0	0	0	0	510	8	
7	0	0	0	0	512	3	
8	0	0	0	0	510	3	
9	0	0	0	0	511	2	
10	0	0	0	0	512	0	
11	0	0	0	0	511	3	
12	0	0	0	0	511	3	
13	0	0	0	0	510	4	
14	0	0	0	0	510	8	
15	0	0	0	0	510	3	
0	0	0	0	0	510	3	
1	0	0	0	0	509	2	
2	0	0	0	0	511	0	
3	0	0	0	0	512	3	
4	0	0	0	0	511	3	
5	0	0	0	0	510	4	
6	0	0	0	0	511	8	
7	0	0	0	0	511	3	
8	0	0	0	0	511	3	
9	0	0	0	0	510	2	
10	0	0	0	0	510	0	
11	0	0	0	0	511	3	
12	0	0	0	0	510	3	
13	0	0	0	0	510	4	
14	0	0	0	0	512	8	
15	0	0	0	0	510	3	
0	0	0	0	0	509	3	
1	0	0	0	0	510	2	
2	0	0	0	0	511	0	
3	0	0	0	0	512	3	
4	0	0	0	0	511	3	
5	0	0	0	0	511	4	
6	0	0	0	0	510	8	
7	0	0	0	0	511	3	
8	0	0	0	0	510	3	
9	0	0	0	0	510	2	
10	0	0	0	0	510	0	
11	0	0	0	0	511	3	
12	0	0	0	0	511	3	
13	0	0	0	0	508	4	
14	0	0	0	0	510	8	
15	0	0	0	0	510	3	
0	0	0	0	0	510	3	
1	0	0	0	0	511	2	
2	0	0	0	0	511	0	
3	0	0	0	0	512	3	
4	0	0	0	0	511	3	
5	0	0	0	0	512	4	
6	0	0	0	0	511	8	
7	0	0	0	0	510	3	
8	0	0	0	0	511	3	
9	0	0	0	0	511	2	
10	0	0	0	0	510	0	
11	0	0	0	0	510	3	
12	0	0	0	0	511	3	
13	0	0	0	0	512	4	
14	0	0	0	0	510	8	
15	0	0	0	0	511	3	
0	0	0	0	0	510	3	
1	0	0	0	0	510	2	
2	0	0	0	0	510	0	
3	0	0	0	0	510	3	
4	0	0	0	0	511	3	
5	0	0	0	0	511	4	
6	0	0	0	0	510	8	
7	0	0	0	0	511	3	
8	0	0	0	0	511	3	
9	0	0	0	0	513	2	
10	0	0	0	0	511	0	
11	0	0	0	0	510	3	
12	0	0	0	0	509	3	
13	0	0	0	0	511	4	
14	0	0	0	0	510	8	
15	0	0	0	0	510	3	
0	0	0	0	0	512	3	
1	0	0	0	0	512	2	
2	0	0	0	0	511	0	
3	0	0	0	0	512	3	
4	0	0	0	0	510	3	
5	0	0	0	0	511	4	
6	0	0	0	0	511	8	
7	0	0	0	0	511	3	
8	0	0	0	0	511	3	
9	0	0	0	0	509	2	
10	0	0	0	0	509	0	
11	0	0	0	0	510	3	
12	0	0	0	0	511	3	
13	0	0	0	0	510	4	
14	0	0	0	0	511	8	
15	0	0	0	0	510	3	
0	0	0	0	0	511	3	
1	0	0	0	0	511	2	
2	0	0	0	0	511	0	
3	0	0	0	0	509	3	
4	0	0	0	0	511	3	
5	0	0	0	0	510	4	
6	0	0	0	0	511	8	
7	0	0	0	0	512	3	
8	0	0	0	0	511	3	
9	0	0	0	0	509	2	
10	0	0	0	0	512	0	
11	0	0	0	0	512	3	
12	0	0	0	0	512	3	
13	0	0	0	0	511	4	
14	0	0	0	0	511	8	
15	0	0	0	0	510	3	
0	0	0	0	0	510	3	
1	0	0	0	0	510	2	
2	0	0	0	0	512	0	
3	0	0	0	0	511	3	
4	0	0	0	0	511	3	
5	0	0	0	0	512	4	
6	0	0	0	0	513	8	
7	0	0	0	0	509	3	
8	0	0	0	0	509	3	
9	0	0	0	0	507	2	
10	0	0	0	0	512	0	
11	0	0	0	0	511	3	
12	0	0	0	0	510	3	
13	0	0	0	0	510	4	
14	0	0	0	0	511	8	
15	0	0	0	0	510	3	
0	0	0	0	0	510	3	
1	0	0	0	0	510	2	
2	0	0	0	0	511	0	
3	0	0	0	0	512	3	
4	0	0	0	0	511	3	
5	0	0	0	0	512	4	
6	0	0	0	0	511	8	
7	0	0	0	0	510	3	
8	0	0	0	0	510	3	
9	0	0	0	0	511	2	
10	0	0	0	0	511	0	
11	0	0	0	0	510	3	
12	0	0	0	0	510	3	
13	0	0	0	0	511	4	
14	0	0	0	0	511	8	
15	0	0	0	0	509	3	
0	0	0	0	0	510	3	
1	0	0	0	0	511	2	
2	0	0	0	0	511	0	
3	0	0	0	0	510	3	
4	0	0	0	0	511	3	
5	0	0	0	0	511	4	
6	0	0	0	0	511	8	
7	0	0	0	0	510	3	
8	0	0	0	0	512	3	
9	0	0	0	0	511	2	
10	0	0	0	0	512	0	
11	0	0	0	0	511	3	
12	0	0	0	0	510	3	
13	0	0	0	0	509	4	
14	0	0	0	0	510	8	
15	0	0	0	0	510	3	
0	0	0	0	0	510	3	
1	0	0	0	0	510	2	
2	0	0	0	0	511	0	
3	0	0	0	0	512	3	
4	0	0	0	0	510	3	
5	0	0	0	0	511	4	
6	0	0	0	0	511	8	
7	0	0	0	0	510	3	
8	0	0	0	0	512	3	
9	0	0	0	0	511	2	
10	0	0	0	0	511	0	
11	0	0	0	0	512	3	
12	0	0	0	0	513	3	
13	0	0	0	0	510	4	
14	0	0	0	0	509	8	
15	0	0	0	0	510	3	
0	0	0	0	0	511	3	
1	0	0	0	0	508	2	
2	0	0	0	0	511	0	
3	0	0	0	0	510	3	
4	0	0	0	0	510	3	
5	0	0	0	0	511	4	
6	0	0	0	0	511	8	
7	0	0	0	0	511	3	
8	0	0	0	0	509	3	
9	0	0	0	0	510	2	
10	0	0	0	0	510	0	
11	0	0	0	0	511	3	
12	0	0	0	0	512	3	
13	0	0	0	0	513	4	
14	0	0	0	0	510	8	
15	0	0	0	0	509	3	
0	0	0	0	0	508	3	
1	0	0	0	0	510	2	
2	0	0	0	0	510	0	
3	0	0	0	0	509	3	
4	0	0	0	0	511	3	
5	0	0	0	0	511	4	
6	0	0	0	0	512	8	
7	0	0	0	0	512	3	
8	0	0	0	0	511	3	
9	0	0	0	0	511	2	
10	0	0	0	0	512	0	
11	0	0	0	0	511	3	
12	0	0	0	0	511	3	
13	0	0	0	0	511	4	
14	0	0	0	0	510	8	
15	0	0	0	0	511	3	
0	0	0	0	0	511	3	
1	0	0	0	0	510	2	
2	0	0	0	0	512	0	
3	0	0	0	0	511	3	
4	0	0	0	0	511	3	
5	0	0	0	0	512	4	
6	0	0	0	0	511	8	
7	0	0	0	0	511	3	
8	0	0	0	0	512	3	
9	0	0	0	0	510	2	
10	0	0	0	0	510	0	
11	0	0	0	0	511	3	
12	0	0	0	0	512	3	
13	0	0	0	0	509	4	
14	0	0	0	0	511	8	
15	0	0	0	0	511	3	
0	0	0	0	0	510	3	
1	0	0	0	0	511	2	
2	0	0	0	0	511	0	
3	0	0	0	0	509	3	
4	0	0	0	0	509	3	
5	0	0	0	0	511	4	
6	0	0	0	0	511	8	
7	0	0	0	0	508	3	
8	0	0	0	0	508	3	
9	0	0	0	0	511	2	
10	0	0	0	0	511	0	
11	0	0	0	0	510	3	
12	0	0	0	0	510	3	
13	0	0	0	0	510	4	
14	0	0	0	0	511	8	
15	0	0	0	0	511	3	
0	0	0	0	0	510	3	
1	0	0	0	0	511	2	
2	0	0	0	0	512	0	
3	0	0	0	0	511	3	
4	0	0	0	0	509	3	
5	0	0	0	0	512	4	
6	0	0	0	0	511	8	
7	0	0	0	0	510	3	
8	0	0	0	0	511	3	
9	0	0	0	0	511	2	
10	0	0	0	0	512	0	
11	0	0	0	0	510	3	
12	0	0	0	0	510	3	
13	0	0	0	0	511	4	
14	0	0	0	0	511	8	
15	0	0	0	0	511	3	
0	0	0	0	0	515	3	
1	0	0	0	0	510	2	
2	0	0	0	0	509	0	
3	0	0	0	0	509	3	
4	0	0	0	0	510	3	
5	0	0	0	0	511	4	
6	0	0	0	0	512	8	
7	0	0	0	0	511	3	
8	0	0	0	0	509	3	
9	0	0	0	0	511	2	
10	0	0	0	0	510	0	
11	0	0	0	0	509	3	
12	0	0	0	0	511	3	
13	0	0	0	0	511	4	
14	0	0	0	0	512	8	
15	0	0	0	0	511	3	
0	0	0	0	0	513	3	
1	0	0	0	0	511	2	
2	0	0	0	0	509	0	
3	0	0	0	0	511	3	
4	0	0	0	0	510	3	
5	0	0	0	0	510	4	
6	0	0	0	0	511	8	
7	0	0	0	0	509	3	
8	0	0	0	0	512	3	
9	0	0	0	0	510	2	
10	0	0	0	0	511	0	
11	0	0	0	0	510	3	
12	0	0	0	0	510	3	
13	0	0	0	0	509	4	
14	0	0	0	0	510	8	
15	0	0	0	0	512	3	
0	0	0	0	0	512	3	
1	0	0	0	0	508	2	
2	0	0	0	0	509	0	
3	0	0	0	0	510	3	
4	0	0	0	0	510	3	
5	0	0	0	0	510	4	
6	0	0	0	0	512	8	
7	0	0	0	0	511	3	
8	0	0	0	0	509	3	
9	0	0	0	0	509	2	
10	0	0	0	0	511	0	
11	0	0	0	0	511	3	
12	0	0	0	0	511	3	
13	0	0	0	0	511	4	
14	0	0	0	0	512	8	
15	0	0	0	0	511	3	
0	0	0	0	0	510	3	
1	0	0	0	0	511	2	
2	0	0	0	0	513	0	
3	0	0	0	0	510	3	
4	0	0	0	0	509	3	
5	0	0	0	0	510	4	
6	0	0	0	0	511	8	
7	0	0	0	0	509	3	
8	0	0	0	0	510	3	
9	0	0	0	0	511	2	
10	0	0	0	0	511	0	
11	0	0	0	0	512	3	
12	0	0	0	0	511	3	
13	0	0	0	0	511	4	
14	0	0	0	0	511	8	
15	0	0	0	0	508	3	
0	0	0	0	0	509	3	
1	0	0	0	0	511	2	
2	0	0	0	0	512	0	
3	0	0	0	0	512	3	
4	0	0	0	0	512	3	
5	0	0	0	0	511	4	
6	0	0	0	0	512	8	
7	0	0	0	0	512	3	
8	0	0	0	0	512	3	
9	0	0	0	0	511	2	
10	0	0	0	0	510	0	
11	0	0	0	0	510	3	
12	0	0	0	0	511	3	
13	0	0	0	0	509	4	
14	0	0	0	0	511	8	
15	0	0	0	0	511	3	
0	0	0	0	0	512	3	
1	0	0	0	0	509	2	
2	0	0	0	0	508	0	
3	0	0	0	0	511	3	
4	0	0	0	0	513	3	
5	0	0	0	0	509	4	
6	0	0	0	0	511	8	
7	0	0	0	0	511	3	
8	0	0	0	0	512	3	
9	0	0	0	0	510	2	
10	0	0	0	0	512	0	
11	0	0	0	0	509	3	
12	0	0	0	0	510	3	
13	0	0	0	0	508	4	
14	0	0	0	0	511	8	
15	0	0	0	0	511	3	
0	0	0	0	0	513	3	
1	0	0	0	0	511	2	
2	0	0	0	0	511	0	
3	0	0	0	0	511	3	
4	0	0	0	0	512	3	
5	0	0	0	0	511	4	
6	0	0	0	0	511	8	
7	0	0	0	0	511	3	
8	0	0	0	0	509	3	
9	0	0	0	0	510	2	
10	0	0	0	0	510	0	
11	0	0	0	0	510	3	
12	0	0	0	0	510	3	
13	0	0	0	0	512	4	
14	0	0	0	0	511	8	
15	0	0	0	0	512	3	
0	0	0	0	0	510	3	
1	0	0	0	0	511	2	
2	0	0	0	0	512	0	
3	0	0	0	0	508	3	
4	0	0	0	0	509	3	
5	0	0	0	0	510	4	
6	0	0	0	0	512	8	
7	0	0	0	0	512	3	
8	0	0	0	0	511	3	
9	0	0	0	0	510	2	
10	0	0	0	0	512	0	
11	0	0	0	0	511	3	
12	0	0	0	0	511	3	
13	0	0	0	0	512	4	
14	0	0	0	0	508	8	
15	0	0	0	0	510	3	
0	0	0	0	0	509	3	
1	0	0	0	0	512	2	
2	0	0	0	0	511	0	
3	0	0	0	0	512	3	
4	0	0	0	0	511	3	
5	0	0	0	0	511	4	
6	0	0	0	0	511	8	
7	0	0	0	0	511	3	
8	0	0	0	0	510	3	
9	0	0	0	0	511	2	
10	0	0	0	0	511	0	
11	0	0	0	0	511	3	
12	0	0	0	0	509	3	
13	0	0	0	0	510	4	
14	0	0	0	0	511	8	
15	0	0	0	0	511	3	
0	0	0	0	0	512	3	
1	0	0	0	0	510	2	
2	0	0	0	0	511	0	
3	0	0	0	0	511	3	
4	0	0	0	0	510	3	
5	0	0	0	0	510	4	
6	0	0	0	0	511	8	
7	0	0	0	0	508	3	
8	0	0	0	0	511	3	
9	0	0	0	0	510	2	
10	0	0	0	0	511	0	
11	0	0	0	0	510	3	
12	0	0	0	0	511	3	
13	0	0	0	0	511	4	
14	0	0	0	0	512	8	
15	0	0	0	0	511	3	
0	0	0	0	0	510	3	
1	0	0	0	0	513	2	
2	0	0	0	0	511	0	
3	0	0	0	0	508	3	
4	0	0	0	0	512	3	
5	0	0	0	0	511	4	
6	0	0	0	0	511	8	
7	0	0	0	0	510	3	
8	0	0	0	0	510	3	
9	0	0	0	0	508	2	
10	0	0	0	0	509	0	
11	0	0	0	0	508	3	
12	0	0	0	0	509	3	
13	0	0	0	0	512	4	
14	0	0	0	0	512	8	
15	0	0	0	0	511	3	
0	0	0	0	0	511	3	
1	0	0	0	0	510	2	
2	0	0	0	0	512	0	
3	0	0	0	0	511	3	
4	0	0	0	0	511	3	
5	0	0	0	0	512	4	
6	0	0	0	0	511	8	
7	0	0	0	0	509	3	
8	0	0	0	0	508	3	
9	0	0	0	0	511	2	
10	0	0	0	0	510	0	
11	0	0	0	0	511	3	
12	0	0	0	0	511	3	
13	0	0	0	0	511	4	
14	0	0	0	0	511	8	
15	0	0	0	0	511	3	
0	0	0	0	0	511	3	
1	0	0	0	0	511	2	
2	0	0	0	0	510	0	
3	0	0	0	0	511	3	
4	0	0	0	0	512	3	
5	0	0	0	0	512	4	
6	0	0	0	0	510	8	
7	0	0	0	0	512	3	
8	0	0	0	0	510	3	
9	0	0	0	0	511	2	
10	0	0	0	0	510	0	
11	0	0	0	0	508	3	
12	0	0	0	0	509	3	
13	0	0	0	0	512	4	
14	0	0	0	0	510	8	
15	0	0	0	0	511	3	
0	0	0	0	0	511	3	
1	0	0	0	0	509	2	
2	0	0	0	0	510	0	
3	0	0	0	0	512	3	
4	0	0	0	0	511	3	
5	0	0	0	0	511	4	
6	0	0	0	0	511	8	
7	0	0	0	0	511	3	
8	0	0	0	0	511	3	
9	0	0	0	0	512	2	
10	0	0	0	0	512	0	
11	0	0	0	0	511	3	
12	0	0	0	0	511	3	
13	0	0	0	0	512	4	
14	0	0	0	0	511	8	
15	0	0	0	0	512	3	
0	0	0	0	0	510	3	
1	0	0	0	0	510	2	
2	0	0	0	0	509	0	
3	0	0	0	0	510	3	
4	0	0	0	0	508	3	
5	0	0	0	0	510	4	
6	0	0	0	0	511	8	
7	0	0	0	0	510	3	
8	0	0	0	0	511	3	
9	0	0	0	0	512	2	
10	0	0	0	0	510	0	
11	0	0	0	0	511	3	
12	0	0	0	0	509	3	
13	0	0	0	0	510	4	
14	0	0	0	0	511	8	
15	0	0	0	0	511	3	
0	0	0	0	0	511	3	
1	0	0	0	0	511	2	
2	0	0	0	0	510	0	
3	0	0	0	0	510	3	
4	0	0	0	0	510	3	
5	0	0	0	0	512	4	
6	0	0	0	0	511	8	
7	0	0	0	0	511	3	
8	0	0	0	0	510	3	
9	0	0	0	0	513	2	
10	0	0	0	0	512	0	
11	0	0	0	0	511	3	
12	0	0	0	0	511	3	
13	0	0	0	0	510	4	
14	0	0	0	0	512	8	
15	0	0	0	0	511	3	
0	0	0	0	0	510	3	
1	0	0	0	0	511	2	
2	0	0	0	0	509	0	
3	0	0	0	0	509	3	
4	0	0	0	0	509	3	
5	0	0	0	0	511	4	
6	0	0	0	0	513	8	
7	0	0	0	0	511	3	
8	0	0	0	0	511	3	
9	0	0	0	0	514	2	
10	0	0	0	0	510	0	
11	0	0	0	0	512	3	
12	0	0	0	0	513	3	
13	0	0	0	0	511	4	
14	0	0	0	0	511	8	
15	0	0	0	0	512	3	
0	0	0	0	0	510	3	
1	0	0	0	0	511	2	
2	0	0	0	0	510	0	
3	0	0	0	0	510	3	
4	0	0	0	0	508	3	
5	0	0	0	0	509	4	
6	0	0	0	0	511	8	
7	0	0	0	0	509	3	
8	0	0	0	0	511	3	
9	0	0	0	0	511	2	
10	0	0	0	0	511	0	
11	0	0	0	0	511	3	
12	0	0	0	0	510	3	
13	0	0	0	0	511	4	
14	0	0	0	0	508	8	
15	0	0	0	0	510	3	
0	0	0	0	0	511	3	
1	0	0	0	0	510	2	
2	0	0	0	0	511	0	
3	0	0	0	0	510	3	
4	0	0	0	0	511	3	
5	0	0	0	0	510	4	
6	0	0	0	0	510	8	
7	0	0	0	0	510	3	
8	0	0	0	0	512	3	
9	0	0	0	0	512	2	
10	0	0	0	0	511	0	
11	0	0	0	0	512	3	
12	0	0	0	0	511	3	
13	0	0	0	0	509	4	
14	0	0	0	0	512	8	
15	0	0	0	0	512	3	
0	0	0	0	0	511	3	
1	0	0	0	0	511	2	
2	0	0	0	0	511	0	
3	0	0	0	0	511	3	
4	0	0	0	0	509	3	
5	0	0	0	0	513	4	
6	0	0	0	0	512	8	
7	0	0	0	0	511	3	
8	0	0	0	0	511	3	
9	0	0	0	0	510	2	
10	0	0	0	0	511	0	
11	0	0	0	0	511	3	
12	0	0	0	0	510	3	
13	0	0	0	0	512	4	
14	0	0	0	0	509	8	
15	0	0	0	0	511	3	
0	0	0	0	0	511	3	
1	0	0	0	0	512	2	
2	0	0	0	0	509	0	
3	0	0	0	0	510	3	
4	0	0	0	0	511	3	
5	0	0	0	0	510	4	
6	0	0	0	0	511	8	
7	0	0	0	0	509	3	
8	0	0	0	0	512	3	
9	0	0	0	0	512	2	
10	0	0	0	0	510	0	
11	0	0	0	0	511	3	
12	0	0	0	0	510	3	
13	0	0	0	0	509	4	
14	0	0	0	0	512	8	
15	0	0	0	0	511	3	
0	0	0	0	0	509	3	
1	0	0	0	0	512	2	
2	0	0	0	0	511	0	
3	0	0	0	0	510	3	
4	0	0	0	0	511	3	
5	0	0	0	0	512	4	
6	0	0	0	0	511	8	
7	0	0	0	0	510	3	
8	0	0	0	0	512	3	
9	0	0	0	0	511	2	
10	0	0	0	0	509	0	
11	0	0	0	0	509	3	
12	0	0	0	0	509	3	
13	0	0	0	0	511	4	
14	0	0	0	0	510	8	
15	0	0	0	0	511	3	
0	0	0	0	0	513	3	
1	0	0	0	0	509	2	
2	0	0	0	0	511	0	
3	0	0	0	0	509	3	
4	0	0	0	0	511	3	
5	0	0	0	0	511	4	
6	0	0	0	0	511	8	
7	0	0	0	0	511	3	
8	0	0	0	0	511	3	
9	0	0	0	0	511	2	
10	0	0	0	0	512	0	
11	0	0	0	0	512	3	
12	0	0	0	0	510	3	
13	0	0	0	0	512	4	
14	0	0	0	0	511	8	
15	0	0	0	0	509	3	
0	0	0	0	0	509	3	
1	0	0	0	0	511	2	
2	0	0	0	0	511	0	
3	0	0	0	0	511	3	
4	0	0	0	0	511	3	
5	0	0	0	0	511	4	
6	0	0	0	0	508	8	
7	0	0	0	0	509	3	
8	0	0	0	0	508	3	
9	0	0	0	0	510	2	
10	0	0	0	0	511	0	
11	0	0	0	0	512	3	
12	0	0	0	0	510	3	
13	0	0	0	0	512	4	
14	0	0	0	0	511	8	
15	0	0	0	0	512	3	
0	0	0	0	0	509	3	
1	0	0	0	0	510	2	
2	0	0	0	0	509	0	
3	0	0	0	0	512	3	
4	0	0	0	0	511	3	
5	0	0	0	0	510	4	
6	0	0	0	0	509	8	
7	0	0	0	0	511	3	
8	0	0	0	0	512	3	
9	0	0	0	0	511	2	
10	0	0	0	0	511	0	
11	0	0	0	0	512	3	
12	0	0	0	0	512	3	
13	0	0	0	0	513	4	
14	0	0	0	0	512	8	
15	0	0	0	0	512	3	
0	0	0	0	0	509	3	
1	0	0	0	0	509	2	
2	0	0	0	0	511	0	
3	0	0	0	0	511	3	
4	0	0	0	0	509	3	
5	0	0	0	0	511	4	
6	0	0	0	0	512	8	
7	0	0	0	0	511	3	
8	0	0	0	0	509	3	
9	0	0	0	0	509	2	
10	0	0	0	0	511	0	
11	0	0	0	0	511	3	
12	0	0	0	0	511	3	
13	0	0	0	0	511	4	
14	0	0	0	0	514	8	
15	0	0	0	0	511	3	
0	0	0	0	0	511	3	
1	0	0	0	0	512	2	
2	0	0	0	0	511	0	
3	0	0	0	0	510	3	
4	0	0	0	0	510	3	
5	0	0	0	0	512	4	
6	0	0	0	0	511	8	
7	0	0	0	0	510	3	
8	0	0	0	0	513	3	
9	0	0	0	0	510	2	
10	0	0	0	0	508	0	
11	0	0	0	0	510	3	
12	0	0	0	0	508	3	
13	0	0	0	0	510	4	
14	0	0	0	0	512	8	
15	0	0	0	0	509	3	
0	0	0	0	0	511	3	
1	0	0	0	0	511	2	
2	0	0	0	0	511	0	
3	0	0	0	0	511	3	
4	0	0	0	0	510	3	
5	0	0	0	0	511	4	
6	0	0	0	0	512	8	
7	0	0	0	0	509	3	
8	0	0	0	0	509	3	
9	0	0	0	0	510	2	
10	0	0	0	0	511	0	
11	0	0	0	0	511	3	
12	0	0	0	0	510	3	
13	0	0	0	0	508	4	
14	0	0	0	0	509	8	
15	0	0	0	0	511	3	
0	0	0	0	0	511	3	
1	0	0	0	0	511	2	
2	0	0	0	0	512	0	
3	0	0	0	0	513	3	
4	0	0	0	0	513	3	
5	0	0	0	0	511	4	
6	0	0	0	0	511	8	
7	0	0	0	0	510	3	
8	0	0	0	0	511	3	
9	0	0	0	0	509	2	
10	0	0	0	0	510	0	
11	0	0	0	0	509	3	
12	0	0	0	0	511	3	
13	0	0	0	0	509	4	
14	0	0	0	0	510	8	
15	0	0	0	0	510	3	
0	0	0	0	0	511	3	
1	0	0	0	0	511	2	
2	0	0	0	0	511	0	
3	0	0	0	0	510	3	
4	0	0	0	0	510	3	
5	0	0	0	0	511	4	
6	0	0	0	0	511	8	
7	0	0	0	0	511	3	
8	0	0	0	0	511	3	
9	0	0	0	0	510	2	
10	0	0	0	0	510	0	
11	0	0	0	0	509	3	
12	0	0	0	0	513	3	
13	0	0	0	0	511	4	
14	0	0	0	0	510	8	
15	0	0	0	0	508	3	
0	0	0	0	0	512	3	
1	0	0	0	0	511	2	
2	0	0	0	0	510	0	
3	0	0	0	0	511	3	
4	0	0	0	0	512	3	
5	0	0	0	0	510	4	
6	0	0	0	0	510	8	
7	0	0	0	0	511	3	
8	0	0	0	0	511	3	
9	0	0	0	0	511	2	
10	0	0	0	0	508	0	
11	0	0	0	0	509	3	
12	0	0	0	0	511	3	
13	0	0	0	0	511	4	
14	0	0	0	0	511	8	
15	0	0	0	0	508	3	
0	0	0	0	0	511	3	
1	0	0	0	0	512	2	
2	0	0	0	0	511	0	
3	0	0	0	0	511	3	
4	0	0	0	0	511	3	
5	0	0	0	0	512	4	
6	0	0	0	0	510	8	
7	0	0	0	0	511	3	
8	0	0	0	0	512	3	
9	0	0	0	0	511	2	
10	0	0	0	0	510	0	
11	0	0	0	0	512	3	
12	0	0	0	0	510	3	
13	0	0	0	0	511	4	
14	0	0	0	0	511	8	
15	0	0	0	0	511	3	
0	0	0	0	0	511	3	
1	0	0	0	0	510	2	
2	0	0	0	0	510	0	
3	0	0	0	0	511	3	
4	0	0	0	0	511	3	
5	0	0	0	0	511	4	
6	0	0	0	0	511	8	
7	0	0	0	0	511	3	
8	0	0	0	0	511	3	
9	0	0	0	0	511	2	
10	0	0	0	0	511	0	
11	0	0	0	0	512	3	
12	0	0	0	0	510	3	
13	0	0	0	0	511	4	
14	0	0	0	0	509	8	
15	0	0	0	0	509	3	
0	0	0	0	0	510	3	
1	0	0	0	0	511	2	
2	0	0	0	0	511	0	
3	0	0	0	0	509	3	
4	0	0	0	0	510	3	
5	0	0	0	0	510	4	
6	0	0	0	0	510	8	
7	0	0	0	0	513	3	
8	0	0	0	0	511	3	
9	0	0	0	0	512	2	
10	0	0	0	0	511	0	
11	0	0	0	0	511	3	
12	0	0	0	0	510	3	
13	0	0	0	0	510	4	
14	0	0	0	0	510	8	
15	0	0	0	0	510	3	
0	0	0	0	0	510	3	
1	0	0	0	0	509	2	
2	0	0	0	0	510	0	
3	0	0	0	0	510	3	
4	0	0	0	0	512	3	
5	0	0	0	0	511	4	
6	0	0	0	0	510	8	
7	0	0	0	0	510	3	
8	0	0	0	0	511	3	
9	0	0	0	0	510	2	
10	0	0	0	0	511	0	
11	0	0	0	0	512	3	
12	0	0	0	0	510	3	
13	0	0	0	0	509	4	
14	0	0	0	0	510	8	
15	0	0	0	0	511	3	
0	0	0	0	0	511	3	
1	0	0	0	0	511	2	
2	0	0	0	0	511	0	
3	0	0	0	0	511	3	
4	0	0	0	0	512	3	
5	0	0	0	0	511	4	
6	0	0	0	0	510	8	
7	0	0	0	0	512	3	
8	0	0	0	0	510	3	
9	0	0	0	0	513	2	
10	0	0	0	0	510	0	
11	0	0	0	0	510	3	
12	0	0	0	0	511	3	
13	0	0	0	0	511	4	
14	0	0	0	0	512	8	
15	0	0	0	0	512	3	
0	0	0	0	0	512	3	
1	0	0	0	0	511	2	
2	0	0	0	0	510	0	
3	0	0	0	0	511	3	
4	0	0	0	0	511	3	
5	0	0	0	0	510	4	
6	0	0	0	0	509	8	
7	0	0	0	0	509	3	
8	0	0	0	0	511	3	
9	0	0	0	0	512	2	
10	0	0	0	0	512	0	
11	0	0	0	0	511	3	
12	0	0	0	0	511	3	
13	0	0	0	0	511	4	
14	0	0	0	0	510	8	
15	0	0	0	0	510	3	
0	0	0	0	0	508	3	
1	0	0	0	0	508	2	
2	0	0	0	0	512	0	
3	0	0	0	0	512	3	
4	0	0	0	0	511	3	
5	0	0	0	0	509	4	
6	0	0	0	0	511	8	
7	0	0	0	0	510	3	
8	0	0	0	0	511	3	
9	0	0	0	0	511	2	
10	0	0	0	0	512	0	
11	0	0	0	0	510	3	
12	0	0	0	0	512	3	
13	0	0	0	0	510	4	
14	0	0	0	0	511	8	
15	0	0	0	0	511	3	
0	0	0	0	0	509	3	
1	0	0	0	0	508	2	
2	0	0	0	0	511	0	
3	0	0	0	0	511	3	
4	0	0	0	0	512	3	
5	0	0	0	0	512	4	
6	0	0	0	0	510	8	
7	0	0	0	0	513	3	
8	0	0	0	0	511	3	
9	0	0	0	0	512	2	
10	0	0	0	0	509	0	
11	0	0	0	0	510	3	
12	0	0	0	0	510	3	
13	0	0	0	0	510	4	
14	0	0	0	0	510	8	
15	0	0	0	0	509	3	
0	0	0	0	0	511	3	
1	0	0	0	0	512	2	
2	0	0	0	0	511	0	
3	0	0	0	0	511	3	
4	0	0	0	0	511	3	
5	0	0	0	0	510	4	
6	0	0	0	0	508	8	
7	0	0	0	0	511	3	
8	0	0	0	0	509	3	
9	0	0	0	0	512	2	
10	0	0	0	0	511	0	
11	0	0	0	0	511	3	
12	0	0	0	0	511	3	
13	0	0	0	0	511	4	
14	0	0	0	0	512	8	
15	0	0	0	0	511	3	
0	0	0	0	0	511	3	
1	0	0	0	0	509	2	
2	0	0	0	0	511	0	
3	0	0	0	0	511	3	
4	0	0	0	0	511	3	
5	0	0	0	0	509	4	
6	0	0	0	0	510	8	
7	0	0	0	0	511	3	
8	0	0	0	0	511	3	
9	0	0	0	0	511	2	
10	0	0	0	0	511	0	
11	0	0	0	0	512	3	
12	0	0	0	0	510	3	
13	0	0	0	0	510	4	
14	0	0	0	0	509	8	
15	0	0	0	0	511	3	
0	0	0	0	0	511	3	
1	0	0	0	0	509	2	
2	0	0	0	0	511	0	
3	0	0	0	0	511	3	
4	0	0	0	0	508	3	
5	0	0	0	0	510	4	
6	0	0	0	0	511	8	
7	0	0	0	0	512	3	
8	0	0	0	0	513	3	
9	0	0	0	0	510	2	
10	0	0	0	0	512	0	
11	0	0	0	0	512	3	
12	0	0	0	0	512	3	
13	0	0	0	0	512	4	
14	0	0	0	0	511	8	
15	0	0	0	0	508	3	
0	0	0	0	0	509	3	
1	0	0	0	0	508	2	
2	0	0	0	0	512	0	
3	0	0	0	0	510	3	
4	0	0	0	0	511	3	
5	0	0	0	0	509	4	
6	0	0	0	0	511	8	
7	0	0	0	0	510	3	
8	0	0	0	0	511	3	
9	0	0	0	0	512	2	
10	0	0	0	0	512	0	
11	0	0	0	0	512	3	
12	0	0	0	0	510	3	
13	0	0	0	0	510	4	
14	0	0	0	0	509	8	
15	0	0	0	0	510	3	
0	0	0	0	0	511	3	
1	0	0	0	0	510	2	
2	0	0	0	0	511	0	
3	0	0	0	0	510	3	
4	0	0	0	0	509	3	
5	0	0	0	0	511	4	
6	0	0	0	0	509	8	
7	0	0	0	0	513	3	
8	0	0	0	0	511	3	
9	0	0	0	0	512	2	
10	0	0	0	0	511	0	
11	0	0	0	0	511	3	
12	0	0	0	0	511	3	
13	0	0	0	0	510	4	
14	0	0	0	0	509	8	
15	0	0	0	0	509	3	
0	0	0	0	0	512	3	
1	0	0	0	0	510	2	
2	0	0	0	0	511	0	
3	0	0	0	0	511	3	
4	0	0	0	0	510	3	
5	0	0	0	0	510	4	
6	0	0	0	0	510	8	
7	0	0	0	0	511	3	
8	0	0	0	0	510	3	
9	0	0	0	0	510	2	
10	0	0	0	0	511	0	
11	0	0	0	0	512	3	
12	0	0	0	0	511	3	
13	0	0	0	0	512	4	
14	0	0	0	0	511	8	
15	0	0	0	0	510	3	
0	0	0	0	0	510	3	
1	0	0	0	0	510	2	
2	0	0	0	0	511	0	
3	0	0	0	0	510	3	
4	0	0	0	0	512	3	
5	0	0	0	0	511	4	
6	0	0	0	0	511	8	
7	0	0	0	0	511	3	
8	0	0	0	0	511	3	
9	0	0	0	0	512	2	
10	0	0	0	0	511	0	
11	0	0	0	0	512	3	
12	0	0	0	0	511	3	
13	0	0	0	0	511	4	
14	0	0	0	0	510	8	
15	0	0	0	0	509	3	
0	0	0	0	0	511	3	
1	0	0	0	0	509	2	
2	0	0	0	0	511	0	
3	0	0	0	0	511	3	
4	0	0	0	0	512	3	
5	0	0	0	0	511	4	
6	0	0	0	0	508	8	
7	0	0	0	0	508	3	
8	0	0	0	0	512	3	
9	0	0	0	0	510	2	
10	0	0	0	0	511	0	
11	0	0	0	0	511	3	
12	0	0	0	0	512	3	
13	0	0	0	0	511	4	
14	0	0	0	0	511	8	
15	0	0	0	0	509	3	
0	0	0	0	0	510	3	
1	0	0	0	0	511	2	
2	0	0	0	0	510	0	
3	0	0	0	0	512	3	
4	0	0	0	0	510	3	
5	0	0	0	0	511	4	
6	0	0	0	0	512	8	
7	0	0	0	0	511	3	
8	0	0	0	0	511	3	
9	0	0	0	0	510	2	
10	0	0	0	0	511	0	
11	0	0	0	0	511	3	
12	0	0	0	0	511	3	
13	0	0	0	0	510	4	
14	0	0	0	0	511	8	
15	0	0	0	0	512	3	
0	0	0	0	0	509	3	
1	0	0	0	0	510	2	
2	0	0	0	0	510	0	
3	0	0	0	0	511	3	
4	0	0	0	0	511	3	
5	0	0	0	0	512	3	
6	0	0	0	0	511	8	
7	0	0	0	0	512	3	
8	0	0	0	0	508	3	
9	0	0	0	0	509	2	
10	0	0	0	0	511	0	
11	0	0	0	0	509	3	
12	0	0	0	0	511	3	
13	0	0	0	0	512	4	
14	0	0	0	0	511	8	
15	0	0	0	0	510	3	
0	0	0	0	0	510	3	
1	0	0	0	0	509	2	
2	0	0	0	0	511	0	
3	0	0	0	0	510	3	
4	0	0	0	0	510	3	
5	0	0	0	0	510	4	
6	0	0	0	0	511	8	
7	0	0	0	0	510	3	
8	0	0	0	0	511	3	
9	0	0	0	0	511	2	
10	0	0	0	0	512	0	
11	0	0	0	0	510	3	
12	0	0	0	0	510	3	
13	0	0	0	0	511	4	
14	0	0	0	0	512	8	
15	0	0	0	0	512	3	
0	0	0	0	0	511	3	
1	0	0	0	0	510	2	
2	0	0	0	0	511	0	
3	0	0	0	0	512	3	
4	0	0	0	0	509	3	
5	0	0	0	0	509	4	
6	0	0	0	0	510	8	
7	0	0	0	0	513	3	
8	0	0	0	0	511	3	
9	0	0	0	0	510	2	
10	0	0	0	0	513	0	
11	0	0	0	0	510	3	
12	0	0	0	0	509	3	
13	0	0	0	0	512	4	
14	0	0	0	0	513	8	
15	0	0	0	0	510	3	
0	0	0	0	0	510	3	
1	0	0	0	0	511	2	
2	0	0	0	0	510	0	
3	0	0	0	0	510	3	
4	0	0	0	0	510	3	
5	0	0	0	0	513	4	
6	0	0	0	0	511	8	
7	0	0	0	0	510	3	
8	0	0	0	0	511	3	
9	0	0	0	0	511	2	
10	0	0	0	0	511	0	
11	0	0	0	0	511	3	
12	0	0	0	0	509	3	
13	0	0	0	0	510	4	
14	0	0	0	0	510	8	
15	0	0	0	0	510	3	
0	0	0	0	0	511	3	
1	0	0	0	0	510	2	
2	0	0	0	0	513	0	
3	0	0	0	0	509	3	
4	0	0	0	0	510	3	
5	0	0	0	0	511	4	
6	0	0	0	0	511	8	
7	0	0	0	0	511	3	
8	0	0	0	0	511	3	
9	0	0	0	0	510	2	
10	0	0	0	0	510	0	
11	0	0	0	0	512	3	
12	0	0	0	0	511	3	
13	0	0	0	0	510	4	
14	0	0	0	0	509	8	
15	0	0	0	0	510	3	
0	0	0	0	0	512	3	
1	0	0	0	0	511	2	
2	0	0	0	0	511	0	
3	0	0	0	0	512	3	
4	0	0	0	0	510	3	
5	0	0	0	0	512	4	
6	0	0	0	0	508	8	
7	0	0	0	0	510	3	
8	0	0	0	0	510	3	
9	0	0	0	0	512	2	
10	0	0	0	0	509	0	
11	0	0	0	0	511	3	
12	0	0	0	0	512	3	
13	0	0	0	0	511	4	
14	0	0	0	0	510	8	
15	0	0	0	0	509	3	
0	0	0	0	0	509	3	
1	0	0	0	0	513	2	
2	0	0	0	0	511	0	
3	0	0	0	0	513	3	
4	0	0	0	0	511	3	
5	0	0	0	0	510	4	
6	0	0	0	0	509	8	
7	0	0	0	0	511	3	
8	0	0	0	0	511	3	
9	0	0	0	0	509	2	
10	0	0	0	0	511	0	
11	0	0	0	0	511	3	
12	0	0	0	0	511	3	
13	0	0	0	0	508	4	
14	0	0	0	0	510	8	
15	0	0	0	0	511	3	
0	0	0	0	0	511	3	
1	0	0	0	0	510	2	
2	0	0	0	0	511	0	
3	0	0	0	0	511	3	
4	0	0	0	0	510	3	
5	0	0	0	0	511	4	
6	0	0	0	0	512	8	
7	0	0	0	0	510	3	
8	0	0	0	0	511	3	
9	0	0	0	0	510	3	
10	0	0	0	0	511	0	
11	0	0	0	0	510	3	
12	0	0	0	0	511	3	
13	0	0	0	0	510	4	
14	0	0	0	0	510	8	
15	0	0	0	0	510	3	
0	0	0	0	0	510	3	
1	0	0	0	0	511	2	
2	0	0	0	0	512	0	
3	0	0	0	0	512	3	
4	0	0	0	0	511	3	
5	0	0	0	0	511	4	
6	0	0	0	0	511	8	
7	0	0	0	0	511	3	
8	0	0	0	0	511	3	
9	0	0	0	0	508	2	
10	0	0	0	0	512	0	
11	0	0	0	0	512	3	
12	0	0	0	0	510	3	
13	0	0	0	0	511	4	
14	0	0	0	0	510	8	
15	0	0	0	0	509	3	
0	0	0	0	0	511	3	
1	0	0	0	0	509	2	
2	0	0	0	0	511	0	
3	0	0	0	0	511	3	
4	0	0	0	0	513	3	
5	0	0	0	0	510	4	
6	0	0	0	0	510	8	
7	0	0	0	0	511	3	
8	0	0	0	0	510	3	
9	0	0	0	0	512	2	
10	0	0	0	0	511	0	
11	0	0	0	0	511	3	
12	0	0	0	0	510	3	
13	0	0	0	0	511	4	
14	0	0	0	0	508	8	
15	0	0	0	0	510	3	
0	0	0	0	0	511	3	
1	0	0	0	0	511	2	
2	0	0	0	0	510	0	
3	0	0	0	0	509	3	
4	0	0	0	0	512	3	
5	0	0	0	0	511	4	
6	0	0	0	0	510	8	
7	0	0	0	0	511	3	
8	0	0	0	0	510	3	
9	0	0	0	0	511	2	
10	0	0	0	0	509	0	
11	0	0	0	0	513	3	
12	0	0	0	0	512	3	
13	0	0	0	0	508	4	
14	0	0	0	0	509	8	
15	0	0	0	0	510	3	
0	0	0	0	0	512	3	
1	0	0	0	0	510	2	
2	0	0	0	0	511	0	
3	0	0	0	0	511	3	
4	0	0	0	0	512	3	
5	0	0	0	0	512	4	
6	0	0	0	0	509	8	
7	0	0	0	0	512	3	
8	0	0	0	0	511	3	
9	0	0	0	0	511	2	
10	0	0	0	0	511	0	
11	0	0	0	0	512	3	
12	0	0	0	0	508	3	
13	0	0	0	0	508	4	
14	0	0	0	0	511	8	
15	0	0	0	0	511	3	
0	0	0	0	0	511	3	
1	0	0	0	0	511	2	
2	0	0	0	0	510	0	
3	0	0	0	0	511	3	
4	0	0	0	0	512	3	
5	0	0	0	0	513	4	
6	0	0	0	0	512	8	
7	0	0	0	0	513	3	
8	0	0	0	0	511	3	
9	0	0	0	0	508	2	
10	0	0	0	0	510	0	
11	0	0	0	0	509	3	
12	0	0	0	0	510	3	
13	0	0	0	0	510	4	
14	0	0	0	0	509	8	
15	0	0	0	0	511	3	
0	0	0	0	0	510	3	
1	0	0	0	0	511	2	
2	0	0	0	0	510	0	
3	0	0	0	0	509	3	
4	0	0	0	0	511	3	
5	0	0	0	0	511	4	
6	0	0	0	0	513	8	
7	0	0	0	0	511	3	
8	0	0	0	0	511	3	
9	0	0	0	0	512	2	
10	0	0	0	0	509	0	
11	0	0	0	0	512	3	
12	0	0	0	0	509	3	
13	0	0	0	0	510	4	
14	0	0	0	0	512	8	
15	0	0	0	0	511	3	
0	0	0	0	0	510	3	
1	0	0	0	0	511	2	
2	0	0	0	0	512	0	
3	0	0	0	0	508	3	
4	0	0	0	0	509	3	
5	0	0	0	0	511	4	
6	0	0	0	0	512	8	
7	0	0	0	0	513	3	
8	0	0	0	0	513	3	
9	0	0	0	0	511	2	
10	0	0	0	0	510	0	
11	0	0	0	0	509	3	
12	0	0	0	0	511	3	
13	0	0	0	0	508	4	
14	0	0	0	0	510	8	
15	0	0	0	0	512	3	
0	0	0	0	0	512	3	
1	0	0	0	0	509	2	
2	0	0	0	0	509	0	
3	0	0	0	0	508	3	
4	0	0	0	0	513	3	
5	0	0	0	0	513	4	
6	0	0	0	0	511	8	
7	0	0	0	0	511	3	
8	0	0	0	0	511	3	
9	0	0	0	0	510	2	
10	0	0	0	0	509	0	
11	0	0	0	0	511	3	
12	0	0	0	0	511	3	
13	0	0	0	0	510	4	
14	0	0	0	0	511	8	
15	0	0	0	0	510	3	
0	0	0	0	0	511	3	
1	0	0	0	0	511	2	
2	0	0	0	0	511	0	
3	0	0	0	0	512	3	
4	0	0	0	0	511	3	
5	0	0	0	0	511	4	
6	0	0	0	0	512	8	
7	0	0	0	0	512	3	
8	0	0	0	0	511	3	
9	0	0	0	0	509	2	
10	0	0	0	0	511	0	
11	0	0	0	0	511	3	
12	0	0	0	0	510	3	
13	0	0	0	0	509	4	
14	0	0	0	0	511	8	
15	0	0	0	0	511	3	
0	0	0	0	0	509	3	
1	0	0	0	0	510	2	
2	0	0	0	0	512	0	
3	0	0	0	0	512	3	
4	0	0	0	0	509	3	
5	0	0	0	0	510	4	
6	0	0	0	0	510	8	
7	0	0	0	0	512	3	
8	0	0	0	0	512	3	
9	0	0	0	0	511	2	
10	0	0	0	0	512	0	
11	0	0	0	0	511	3	
12	0	0	0	0	512	3	
13	0	0	0	0	511	4	
14	0	0	0	0	512	8	
15	0	0	0	0	511	3	
0	0	0	0	0	508	3	
1	0	0	0	0	509	2	
2	0	0	0	0	509	0	
3	0	0	0	0	510	3	
4	0	0	0	0	511	3	
5	0	0	0	0	510	4	
6	0	0	0	0	511	8	
7	0	0	0	0	511	3	
8	0	0	0	0	509	3	
9	0	0	0	0	510	2	
10	0	0	0	0	512	0	
11	0	0	0	0	512	3	
12	0	0	0	0	512	3	
13	0	0	0	0	512	4	
14	0	0	0	0	513	8	
15	0	0	0	0	512	3	
0	0	0	0	0	512	3	
1	0	0	0	0	507	2	
2	0	0	0	0	507	0	
3	0	0	0	0	510	3	
4	0	0	0	0	511	3	
5	0	0	0	0	512	4	
6	0	0	0	0	511	8	
7	0	0	0	0	511	3	
8	0	0	0	0	511	3	
9	0	0	0	0	512	2	
10	0	0	0	0	510	0	
11	0	0	0	0	511	3	
12	0	0	0	0	511	3	
13	0	0	0	0	511	4	
14	0	0	0	0	510	8	
15	0	0	0	0	511	3	
0	0	0	0	0	510	3	
1	0	0	0	0	507	2	
2	0	0	0	0	510	0	
3	0	0	0	0	511	3	
4	0	0	0	0	511	3	
5	0	0	0	0	509	4	
6	0	0	0	0	507	8	
7	0	0	0	0	509	3	
8	0	0	0	0	509	3	
9	0	0	0	0	514	2	
10	0	0	0	0	514	0	
11	0	0	0	0	513	3	
12	0	0	0	0	511	3	
13	0	0	0	0	511	4	
14	0	0	0	0	511	8	
15	0	0	0	0	510	3	
0	0	0	0	0	511	3	
1	0	0	0	0	510	2	
2	0	0	0	0	508	0	
3	0	0	0	0	511	3	
4	0	0	0	0	511	3	
5	0	0	0	0	512	4	
6	0	0	0	0	511	8	
7	0	0	0	0	511	3	
8	0	0	0	0	513	3	
9	0	0	0	0	510	2	
10	0	0	0	0	510	0	
11	0	0	0	0	512	3	
12	0	0	0	0	511	3	
13	0	0	0	0	511	4	
14	0	0	0	0	509	8	
15	0	0	0	0	510	3	
0	0	0	0	0	510	3	
1	0	0	0	0	511	2	
2	0	0	0	0	511	0	
3	0	0	0	0	511	3	
4	0	0	0	0	510	3	
5	0	0	0	0	509	4	
6	0	0	0	0	510	8	
7	0	0	0	0	511	3	
8	0	0	0	0	512	3	
9	0	0	0	0	511	3	
10	0	0	0	0	510	0	
11	0	0	0	0	511	3	
12	0	0	0	0	510	3	
13	0	0	0	0	511	4	
14	0	0	0	0	511	8	
15	0	0	0	0	512	3	
0	0	0	0	0	511	3	
1	0	0	0	0	510	2	
2	0	0	0	0	510	0	
3	0	0	0	0	509	3	
4	0	0	0	0	511	3	
5	0	0	0	0	511	4	
6	0	0	0	0	511	8	
7	0	0	0	0	511	3	
8	0	0	0	0	511	3	
9	0	0	0	0	511	2	
10	0	0	0	0	509	0	
11	0	0	0	0	511	3	
12	0	0	0	0	511	3	
13	0	0	0	0	511	4	
14	0	0	0	0	512	8	
15	0	0	0	0	511	3	
0	0	0	0	0	511	3	
1	0	0	0	0	511	2	
2	0	0	0	0	511	0	
3	0	0	0	0	511	3	
4	0	0	0	0	511	3	
5	0	0	0	0	510	4	
6	0	0	0	0	509	8	
7	0	0	0	0	509	3	
8	0	0	0	0	510	3	
9	0	0	0	0	511	2	
10	0	0	0	0	512	0	
11	0	0	0	0	510	3	
12	0	0	0	0	510	3	
13	0	0	0	0	511	4	
14	0	0	0	0	514	8	
15	0	0	0	0	508	3	
0	0	0	0	0	510	3	
1	0	0	0	0	511	2	
2	0	0	0	0	511	0	
3	0	0	0	0	511	3	
4	0	0	0	0	512	3	
5	0	0	0	0	510	4	
6	0	0	0	0	512	8	
7	0	0	0	0	510	3	
8	0	0	0	0	509	3	
9	0	0	0	0	510	2	
10	0	0	0	0	510	0	
11	0	0	0	0	511	3	
12	0	0	0	0	511	3	
13	0	0	0	0	512	4	
14	0	0	0	0	511	8	
15	0	0	0	0	511	3	
0	0	0	0	0	511	3	
1	0	0	0	0	512	2	
2	0	0	0	0	511	0	
3	0	0	0	0	512	3	
4	0	0	0	0	511	3	
5	0	0	0	0	511	4	
6	0	0	0	0	510	8	
7	0	0	0	0	509	3	
8	0	0	0	0	510	3	
9	0	0	0	0	512	2	
10	0	0	0	0	510	0	
11	0	0	0	0	511	3	
12	0	0	0	0	509	3	
13	0	0	0	0	508	4	
14	0	0	0	0	511	8	
15	0	0	0	0	510	3	
0	0	0	0	0	511	3	
1	0	0	0	0	513	2	
2	0	0	0	0	511	0	
3	0	0	0	0	510	3	
4	0	0	0	0	512	3	
5	0	0	0	0	511	4	
6	0	0	0	0	510	8	
7	0	0	0	0	508	3	
8	0	0	0	0	512	3	
9	0	0	0	0	509	3	
10	0	0	0	0	511	0	
11	0	0	0	0	510	3	
12	0	0	0	0	512	3	
13	0	0	0	0	511	4	
14	0	0	0	0	511	8	
15	0	0	0	0	512	3	
0	0	0	0	0	511	3	
1	0	0	0	0	511	2	
2	0	0	0	0	510	0	
3	0	0	0	0	513	3	
4	0	0	0	0	511	3	
5	0	0	0	0	510	4	
6	0	0	0	0	511	8	
7	0	0	0	0	511	3	
8	0	0	0	0	511	3	
9	0	0	0	0	512	2	
10	0	0	0	0	511	0	
11	0	0	0	0	510	3	
12	0	0	0	0	511	3	
13	0	0	0	0	512	4	
14	0	0	0	0	510	8	
15	0	0	0	0	511	3	
0	0	0	0	0	512	3	
1	0	0	0	0	510	2	
2	0	0	0	0	512	0	
3	0	0	0	0	511	3	
4	0	0	0	0	509	3	
5	0	0	0	0	510	4	
6	0	0	0	0	509	8	
7	0	0	0	0	512	3	
8	0	0	0	0	510	3	
9	0	0	0	0	508	2	
10	0	0	0	0	512	0	
11	0	0	0	0	510	3	
12	0	0	0	0	511	3	
13	0	0	0	0	511	4	
14	0	0	0	0	511	8	
15	0	0	0	0	511	3	
0	0	0	0	0	510	3	
1	0	0	0	0	512	2	
2	0	0	0	0	510	0	
3	0	0	0	0	510	3	
4	0	0	0	0	511	3	
5	0	0	0	0	513	4	
6	0	0	0	0	509	8	
7	0	0	0	0	511	3	
8	0	0	0	0	511	3	
9	0	0	0	0	511	2	
10	0	0	0	0	511	0	
11	0	0	0	0	512	3	
12	0	0	0	0	510	3	
13	0	0	0	0	509	4	
14	0	0	0	0	512	8	
15	0	0	0	0	511	3	
0	0	0	0	0	512	3	
1	0	0	0	0	510	2	
2	0	0	0	0	511	0	
3	0	0	0	0	511	3	
4	0	0	0	0	511	3	
5	0	0	0	0	511	4	
6	0	0	0	0	511	8	
7	0	0	0	0	510	3	
8	0	0	0	0	510	3	
9	0	0	0	0	511	2	
10	0	0	0	0	508	0	
11	0	0	0	0	508	3	
12	0	0	0	0	509	3	
13	0	0	0	0	512	4	
14	0	0	0	0	508	8	
15	0	0	0	0	509	3	
0	0	0	0	0	509	3	
1	0	0	0	0	510	2	
2	0	0	0	0	511	0	
3	0	0	0	0	510	3	
4	0	0	0	0	509	3	
5	0	0	0	0	510	4	
6	0	0	0	0	509	8	
7	0	0	0	0	510	3	
8	0	0	0	0	508	3	
9	0	0	0	0	509	2	
10	0	0	0	0	509	0	
11	0	0	0	0	508	3	
12	0	0	0	0	511	3	
13	0	0	0	0	509	4	
14	0	0	0	0	511	8	
15	0	0	0	0	510	3	
0	0	0	0	0	510	3	
1	0	0	0	0	510	2	
2	0	0	0	0	509	0	
3	0	0	0	0	512	3	
4	0	0	0	0	510	3	
5	0	0	0	0	512	4	
6	0	0	0	0	510	8	
7	0	0	0	0	509	3	
8	0	0	0	0	509	3	
9	0	0	0	0	508	2	
10	0	0	0	0	507	0	
11	0	0	0	0	509	3	
12	0	0	0	0	511	3	
13	0	0	0	0	511	4	
14	0	0	0	0	511	8	
15	0	0	0	0	510	3	
0	0	0	0	0	513	3	
1	0	0	0	0	511	2	
2	0	0	0	0	512	0	
3	0	0	0	0	512	3	
4	0	0	0	0	509	3	
5	0	0	0	0	509	4	
6	0	0	0	0	509	8	
7	0	0	0	0	510	3	
8	0	0	0	0	512	3	
9	0	0	0	0	509	2	
10	0	0	0	0	512	0	
11	0	0	0	0	509	3	
12	0	0	0	0	507	3	
13	0	0	0	0	510	4	
14	0	0	0	0	511	8	
15	0	0	0	0	510	3	
0	0	0	0	0	508	3	
1	0	0	0	0	510	2	
2	0	0	0	0	511	0	
3	0	0	0	0	512	3	
4	0	0	0	0	511	3	
5	0	0	0	0	510	4	
6	0	0	0	0	510	8	
7	0	0	0	0	510	3	
8	0	0	0	0	510	3	
9	0	0	0	0	511	2	
10	0	0	0	0	509	0	
11	0	0	0	0	509	3	
12	0	0	0	0	510	3	
13	0	0	0	0	509	4	
14	0	0	0	0	512	8	
15	0	0	0	0	510	3	
0	0	0	0	0	512	3	
1	0	0	0	0	510	2	
2	0	0	0	0	510	0	
3	0	0	0	0	512	3	
4	0	0	0	0	511	3	
5	0	0	0	0	510	4	
6	0	0	0	0	509	8	
7	0	0	0	0	511	3	
8	0	0	0	0	511	3	
9	0	0	0	0	511	2	
10	0	0	0	0	513	0	
11	0	0	0	0	511	3	
12	0	0	0	0	510	3	
13	0	0	0	0	511	4	
14	0	0	0	0	511	8	
15	0	0	0	0	510	3	
0	0	0	0	0	511	3	
1	0	0	0	0	512	2	
2	0	0	0	0	511	0	
3	0	0	0	0	511	3	
4	0	0	0	0	515	3	
5	0	0	0	0	512	4	
6	0	0	0	0	512	8	
7	0	0	0	0	511	3	
8	0	0	0	0	511	3	
9	0	0	0	0	510	2	
10	0	0	0	0	509	0	
11	0	0	0	0	511	3	
12	0	0	0	0	511	3	
13	0	0	0	0	511	4	
14	0	0	0	0	511	8	
15	0	0	0	0	510	3	
0	0	0	0	0	511	3	
1	0	0	0	0	512	2	
2	0	0	0	0	511	0	
3	0	0	0	0	511	3	
4	0	0	0	0	510	3	
5	0	0	0	0	513	4	
6	0	0	0	0	513	8	
7	0	0	0	0	510	3	
8	0	0	0	0	512	3	
9	0	0	0	0	511	2	
10	0	0	0	0	509	0	
11	0	0	0	0	508	3	
12	0	0	0	0	510	3	
13	0	0	0	0	511	4	
14	0	0	0	0	511	8	
15	0	0	0	0	511	3	
0	0	0	0	0	512	3	
1	0	0	0	0	513	2	
2	0	0	0	0	512	0	
3	0	0	0	0	513	3	
4	0	0	0	0	510	3	
5	0	0	0	0	509	4	
6	0	0	0	0	510	8	
7	0	0	0	0	510	3	
8	0	0	0	0	511	3	
9	0	0	0	0	511	2	
10	0	0	0	0	511	0	
11	0	0	0	0	511	3	
12	0	0	0	0	509	3	
13	0	0	0	0	510	4	
14	0	0	0	0	511	8	
15	0	0	0	0	508	3	
0	0	0	0	0	511	3	
1	0	0	0	0	510	2	
2	0	0	0	0	509	0	
3	0	0	0	0	509	3	
4	0	0	0	0	512	3	
5	0	0	0	0	513	4	
6	0	0	0	0	511	8	
7	0	0	0	0	510	3	
8	0	0	0	0	511	3	
9	0	0	0	0	510	2	
10	0	0	0	0	510	0	
11	0	0	0	0	510	3	
12	0	0	0	0	512	3	
13	0	0	0	0	510	4	
14	0	0	0	0	511	8	
15	0	0	0	0	508	3	
0	0	0	0	0	509	3	
1	0	0	0	0	510	2	
2	0	0	0	0	512	0	
3	0	0	0	0	511	3	
4	0	0	0	0	511	3	
5	0	0	0	0	508	4	
6	0	0	0	0	512	8	
7	0	0	0	0	509	3	
8	0	0	0	0	512	3	
9	0	0	0	0	512	2	
10	0	0	0	0	512	0	
11	0	0	0	0	511	3	
12	0	0	0	0	512	3	
13	0	0	0	0	508	4	
14	0	0	0	0	513	8	
15	0	0	0	0	512	3	
0	0	0	0	0	510	3	
1	0	0	0	0	510	2	
2	0	0	0	0	511	0	
3	0	0	0	0	512	3	
4	0	0	0	0	513	3	
5	0	0	0	0	510	4	
6	0	0	0	0	513	8	
7	0	0	0	0	512	3	
8	0	0	0	0	512	3	
9	0	0	0	0	513	2	
10	0	0	0	0	513	0	
11	0	0	0	0	515	3	
12	0	0	0	0	511	3	
13	0	0	0	0	511	4	
14	0	0	0	0	511	8	
15	0	0	0	0	513	3	
0	0	0	0	0	512	3	
1	0	0	0	0	513	2	
2	0	0	0	0	512	0	
3	0	0	0	0	512	3	
4	0	0	0	0	512	3	
5	0	0	0	0	511	4	
6	0	0	0	0	513	8	
7	0	0	0	0	512	3	
8	0	0	0	0	511	3	
9	0	0	0	0	511	2	
10	0	0	0	0	512	0	
11	0	0	0	0	513	3	
12	0	0	0	0	510	3	
13	0	0	0	0	511	4	
14	0	0	0	0	511	8	
15	0	0	0	0	511	3	
0	0	0	0	0	513	3	
1	0	0	0	0	513	2	
2	0	0	0	0	512	0	
3	0	0	0	0	509	3	
4	0	0	0	0	511	3	
5	0	0	0	0	510	4	
6	0	0	0	0	513	8	
7	0	0	0	0	511	3	
8	0	0	0	0	510	3	
9	0	0	0	0	512	2	
10	0	0	0	0	510	0	
11	0	0	0	0	509	3	
12	0	0	0	0	512	3	
13	0	0	0	0	512	4	
14	0	0	0	0	510	8	
15	0	0	0	0	511	3	
0	0	0	0	0	511	3	
1	0	0	0	0	510	2	
2	0	0	0	0	508	0	
3	0	0	0	0	510	3	
4	0	0	0	0	511	3	
5	0	0	0	0	509	4	
6	0	0	0	0	507	8	
7	0	0	0	0	510	3	
8	0	0	0	0	508	3	
9	0	0	0	0	508	2	
10	0	0	0	0	509	0	
11	0	0	0	0	509	3	
12	0	0	0	0	509	3	
13	0	0	0	0	508	4	
14	0	0	0	0	512	8	
15	0	0	0	0	513	3	
0	0	0	0	0	511	3	
1	0	0	0	0	511	2	
2	0	0	0	0	510	0	
3	0	0	0	0	510	3	
4	0	0	0	0	508	3	
5	0	0	0	0	510	4	
6	0	0	0	0	510	8	
7	0	0	0	0	511	3	
8	0	0	0	0	511	3	
9	0	0	0	0	511	2	
10	0	0	0	0	510	0	
11	0	0	0	0	509	3	
12	0	0	0	0	507	3	
13	0	0	0	0	508	4	
14	0	0	0	0	509	8	
15	0	0	0	0	512	3	
0	0	0	0	0	510	3	
1	0	0	0	0	510	2	
2	0	0	0	0	509	0	
3	0	0	0	0	510	3	
4	0	0	0	0	510	3	
5	0	0	0	0	510	4	
6	0	0	0	0	511	8	
7	0	0	0	0	508	3	
8	0	0	0	0	508	3	
9	0	0	0	0	510	2	
10	0	0	0	0	508	0	
11	0	0	0	0	512	3	
12	0	0	0	0	511	3	
13	0	0	0	0	511	4	
14	0	0	0	0	510	8	
15	0	0	0	0	509	3	
0	0	0	0	0	511	3	
1	0	0	0	0	511	2	
2	0	0	0	0	512	0	
3	0	0	0	0	512	3	
4	0	0	0	0	510	3	
5	0	0	0	0	511	4	
6	0	0	0	0	511	8	
7	0	0	0	0	509	3	
8	0	0	0	0	512	3	
9	0	0	0	0	511	2	
10	0	0	0	0	510	0	
11	0	0	0	0	511	3	
12	0	0	0	0	510	3	
13	0	0	0	0	511	4	
14	0	0	0	0	510	8	
15	0	0	0	0	507	3	
0	0	0	0	0	510	3	
1	0	0	0	0	511	2	
2	0	0	0	0	511	0	
3	0	0	0	0	509	3	
4	0	0	0	0	510	3	
5	0	0	0	0	512	4	
6	0	0	0	0	512	8	
7	0	0	0	0	510	3	
8	0	0	0	0	511	3	
9	0	0	0	0	511	2	
10	0	0	0	0	510	0	
11	0	0	0	0	510	3	
12	0	0	0	0	512	3	
13	0	0	0	0	512	4	
14	0	0	0	0	511	8	
15	0	0	0	0	510	3	
0	0	0	0	0	511	3	
1	0	0	0	0	510	2	
2	0	0	0	0	509	0	
3	0	0	0	0	508	3	
4	0	0	0	0	511	3	
5	0	0	0	0	512	4	
6	0	0	0	0	511	8	
7	0	0	0	0	511	3	
8	0	0	0	0	511	3	
9	0	0	0	0	513	2	
10	0	0	0	0	510	0	
11	0	0	0	0	512	3	
12	0	0	0	0	511	3	
13	0	0	0	0	510	4	
14	0	0	0	0	510	8	
15	0	0	0	0	511	3	
0	0	0	0	0	511	3	
1	0	0	0	0	511	2	
2	0	0	0	0	511	0	
3	0	0	0	0	512	3	
4	0	0	0	0	509	3	
5	0	0	0	0	511	4	
6	0	0	0	0	512	8	
7	0	0	0	0	510	3	
8	0	0	0	0	511	3	
9	0	0	0	0	510	2	
10	0	0	0	0	509	0	
11	0	0	0	0	509	3	
12	0	0	0	0	510	3	
13	0	0	0	0	512	4	
14	0	0	0	0	510	8	
15	0	0	0	0	510	3	
0	0	0	0	0	511	3	
1	0	0	0	0	510	2	
2	0	0	0	0	511	0	
3	0	0	0	0	512	3	
4	0	0	0	0	511	3	
5	0	0	0	0	510	4	
6	0	0	0	0	510	8	
7	0	0	0	0	511	3	
8	0	0	0	0	508	3	
9	0	0	0	0	509	2	
10	0	0	0	0	511	0	
11	0	0	0	0	510	3	
12	0	0	0	0	515	3	
13	0	0	0	0	513	4	
14	0	0	0	0	511	8	
15	0	0	0	0	510	3	
0	0	0	0	0	509	3	
1	0	0	0	0	511	2	
2	0	0	0	0	508	0	
3	0	0	0	0	508	3	
4	0	0	0	0	511	3	
5	0	0	0	0	511	4	
6	0	0	0	0	510	8	
7	0	0	0	0	511	3	
8	0	0	0	0	509	3	
9	0	0	0	0	510	2	
10	0	0	0	0	510	0	
11	0	0	0	0	511	3	
12	0	0	0	0	511	3	
13	0	0	0	0	512	4	
14	0	0	0	0	511	8	
15	0	0	0	0	511	3	
0	0	0	0	0	513	3	
1	0	0	0	0	515	2	
2	0	0	0	0	511	0	
3	0	0	0	0	509	3	
4	0	0	0	0	509	3	
5	0	0	0	0	511	4	
6	0	0	0	0	511	8	
7	0	0	0	0	512	3	
8	0	0	0	0	512	3	
9	0	0	0	0	511	2	
10	0	0	0	0	510	0	
11	0	0	0	0	511	3	
12	0	0	0	0	511	3	
13	0	0	0	0	510	4	
14	0	0	0	0	510	8	
15	0	0	0	0	512	3	
0	0	0	0	0	512	3	
1	0	0	0	0	511	2	
2	0	0	0	0	509	0	
3	0	0	0	0	510	3	
4	0	0	0	0	512	3	
5	0	0	0	0	511	4	
6	0	0	0	0	509	8	
7	0	0	0	0	509	3	
8	0	0	0	0	511	3	
9	0	0	0	0	511	2	
10	0	0	0	0	511	0	
11	0	0	0	0	510	3	
12	0	0	0	0	509	3	
13	0	0	0	0	512	4	
14	0	0	0	0	512	8	
15	0	0	0	0	511	3	
0	0	0	0	0	512	3	
1	0	0	0	0	510	2	
2	0	0	0	0	511	0	
3	0	0	0	0	512	3	
4	0	0	0	0	512	3	
5	0	0	0	0	511	4	
6	0	0	0	0	513	8	
7	0	0	0	0	510	3	
8	0	0	0	0	512	3	
9	0	0	0	0	510	2	
10	0	0	0	0	511	0	
11	0	0	0	0	511	3	
12	0	0	0	0	512	3	
13	0	0	0	0	511	4	
14	0	0	0	0	511	8	
15	0	0	0	0	511	3	
0	0	0	0	0	511	3	
1	0	0	0	0	511	2	
2	0	0	0	0	511	0	
3	0	0	0	0	511	3	
4	0	0	0	0	513	3	
5	0	0	0	0	510	4	
6	0	0	0	0	510	8	
7	0	0	0	0	511	3	
8	0	0	0	0	511	3	
9	0	0	0	0	509	2	
10	0	0	0	0	511	0	
11	0	0	0	0	511	3	
12	0	0	0	0	511	3	
13	0	0	0	0	509	4	
14	0	0	0	0	509	8	
15	0	0	0	0	509	3	
0	0	0	0	0	509	3	
1	0	0	0	0	511	2	
2	0	0	0	0	514	0	
3	0	0	0	0	515	3	
4	0	0	0	0	511	3	
5	0	0	0	0	509	4	
6	0	0	0	0	508	8	
7	0	0	0	0	508	3	
8	0	0	0	0	511	3	
9	0	0	0	0	510	2	
10	0	0	0	0	511	0	
11	0	0	0	0	511	3	
12	0	0	0	0	508	3	
13	0	0	0	0	509	4	
14	0	0	0	0	512	8	
15	0	0	0	0	513	3	
0	0	0	0	0	516	3	
1	0	0	0	0	510	2	
2	0	0	0	0	509	0	
3	0	0	0	0	512	3	
4	0	0	0	0	512	3	
5	0	0	0	0	512	4	
6	0	0	0	0	513	8	
7	0	0	0	0	511	3	
8	0	0	0	0	510	3	
9	0	0	0	0	511	2	
10	0	0	0	0	511	0	
11	0	0	0	0	512	3	
12	0	0	0	0	511	3	
13	0	0	0	0	511	4	
14	0	0	0	0	511	8	
15	0	0	0	0	508	3	
0	0	0	0	0	512	3	
1	0	0	0	0	511	2	
2	0	0	0	0	510	0	
3	0	0	0	0	511	3	
4	0	0	0	0	511	3	
5	0	0	0	0	511	4	
6	0	0	0	0	511	8	
7	0	0	0	0	510	3	
8	0	0	0	0	511	3	
9	0	0	0	0	512	2	
10	0	0	0	0	511	0	
11	0	0	0	0	510	3	
12	0	0	0	0	511	3	
13	0	0	0	0	511	4	
14	0	0	0	0	510	8	
15	0	0	0	0	510	3	
0	0	0	0	0	511	3	
1	0	0	0	0	511	2	
2	0	0	0	0	510	0	
3	0	0	0	0	510	3	
4	0	0	0	0	510	3	
5	0	0	0	0	511	4	
6	0	0	0	0	511	8	
7	0	0	0	0	510	3	
8	0	0	0	0	514	3	
9	0	0	0	0	510	2	
10	0	0	0	0	511	0	
11	0	0	0	0	510	3	
12	0	0	0	0	513	3	
13	0	0	0	0	512	4	
14	0	0	0	0	510	8	
15	0	0	0	0	510	3	
0	0	0	0	0	509	3	
1	0	0	0	0	510	2	
2	0	0	0	0	512	0	
3	0	0	0	0	512	3	
4	0	0	0	0	510	3	
5	0	0	0	0	511	4	
6	0	0	0	0	510	8	
7	0	0	0	0	511	3	
8	0	0	0	0	509	3	
9	0	0	0	0	512	2	
10	0	0	0	0	510	0	
11	0	0	0	0	511	3	
12	0	0	0	0	510	3	
13	0	0	0	0	510	4	
14	0	0	0	0	511	8	
15	0	0	0	0	510	3	
0	0	0	0	0	512	3	
1	0	0	0	0	512	2	
2	0	0	0	0	511	0	
3	0	0	0	0	510	3	
4	0	0	0	0	510	3	
5	0	0	0	0	511	4	
6	0	0	0	0	512	8	
7	0	0	0	0	509	3	
8	0	0	0	0	507	3	
9	0	0	0	0	511	2	
10	0	0	0	0	513	0	
11	0	0	0	0	512	3	
12	0	0	0	0	512	3	
13	0	0	0	0	510	4	
14	0	0	0	0	513	8	
15	0	0	0	0	511	3	
0	0	0	0	0	509	3	
1	0	0	0	0	511	2	
2	0	0	0	0	510	0	
3	0	0	0	0	508	3	
4	0	0	0	0	510	3	
5	0	0	0	0	511	4	
6	0	0	0	0	511	8	
7	0	0	0	0	513	3	
8	0	0	0	0	511	3	
9	0	0	0	0	510	2	
10	0	0	0	0	511	0	
11	0	0	0	0	509	3	
12	0	0	0	0	509	3	
13	0	0	0	0	512	4	
14	0	0	0	0	510	8	
15	0	0	0	0	510	3	
0	0	0	0	0	511	3	
1	0	0	0	0	509	2	
2	0	0	0	0	512	0	
3	0	0	0	0	511	3	
4	0	0	0	0	510	3	
5	0	0	0	0	508	4	
6	0	0	0	0	510	8	
7	0	0	0	0	512	3	
8	0	0	0	0	509	3	
9	0	0	0	0	511	2	
10	0	0	0	0	510	0	
11	0	0	0	0	511	3	
12	0	0	0	0	515	3	
13	0	0	0	0	512	4	
14	0	0	0	0	511	8	
15	0	0	0	0	510	3	
0	0	0	0	0	510	3	
1	0	0	0	0	509	2	
2	0	0	0	0	510	0	
3	0	0	0	0	510	3	
4	0	0	0	0	512	3	
5	0	0	0	0	509	4	
6	0	0	0	0	510	8	
7	0	0	0	0	509	3	
8	0	0	0	0	510	3	
9	0	0	0	0	508	2	
10	0	0	0	0	511	0	
11	0	0	0	0	511	3	
12	0	0	0	0	512	3	
13	0	0	0	0	511	4	
14	0	0	0	0	511	8	
15	0	0	0	0	511	3	
0	0	0	0	0	511	3	
1	0	0	0	0	510	2	
2	0	0	0	0	510	0	
3	0	0	0	0	511	3	
4	0	0	0	0	511	3	
5	0	0	0	0	510	4	
6	0	0	0	0	510	8	
7	0	0	0	0	511	3	
8	0	0	0	0	511	3	
9	0	0	0	0	512	2	
10	0	0	0	0	511	0	
11	0	0	0	0	512	3	
12	0	0	0	0	511	3	
13	0	0	0	0	511	4	
14	0	0	0	0	511	8	
15	0	0	0	0	511	3	
0	0	0	0	0	512	3	
1	0	0	0	0	511	2	
2	0	0	0	0	511	0	
3	0	0	0	0	512	3	
4	0	0	0	0	510	3	
5	0	0	0	0	511	4	
6	0	0	0	0	510	8	
7	0	0	0	0	511	3	
8	0	0	0	0	510	3	
9	0	0	0	0	511	2	
10	0	0	0	0	510	0	
11	0	0	0	0	512	3	
12	0	0	0	0	511	3	
13	0	0	0	0	511	4	
14	0	0	0	0	511	8	
15	0	0	0	0	510	3	
0	0	0	0	0	512	3	
1	0	0	0	0	510	2	
2	0	0	0	0	510	0	
3	0	0	0	0	511	3	
4	0	0	0	0	510	3	
5	0	0	0	0	512	4	
6	0	0	0	0	512	8	
7	0	0	0	0	511	3	
8	0	0	0	0	509	3	
9	0	0	0	0	511	2	
10	0	0	0	0	511	0	
11	0	0	0	0	510	3	
12	0	0	0	0	510	3	
13	0	0	0	0	511	4	
14	0	0	0	0	511	8	
15	0	0	0	0	513	3	
0	0	0	0	0	510	3	
1	0	0	0	0	508	2	
2	0	0	0	0	510	0	
3	0	0	0	0	511	3	
4	0	0	0	0	512	3	
5	0	0	0	0	511	4	
6	0	0	0	0	511	8	
7	0	0	0	0	508	3	
8	0	0	0	0	509	3	
9	0	0	0	0	510	2	
10	0	0	0	0	511	0	
11	0	0	0	0	512	3	
12	0	0	0	0	508	3	
13	0	0	0	0	512	4	
14	0	0	0	0	512	8	
15	0	0	0	0	511	3	
0	0	0	0	0	512	3	
1	0	0	0	0	513	2	
2	0	0	0	0	511	0	
3	0	0	0	0	511	3	
4	0	0	0	0	509	3	
5	0	0	0	0	511	4	
6	0	0	0	0	512	8	
7	0	0	0	0	512	3	
8	0	0	0	0	510	3	
9	0	0	0	0	511	2	
10	0	0	0	0	512	0	
11	0	0	0	0	510	3	
12	0	0	0	0	512	3	
13	0	0	0	0	509	4	
14	0	0	0	0	511	8	
15	0	0	0	0	512	3	
0	0	0	0	0	507	3	
1	0	0	0	0	509	2	
2	0	0	0	0	514	0	
3	0	0	0	0	513	3	
4	0	0	0	0	510	3	
5	0	0	0	0	511	4	
6	0	0	0	0	512	8	
7	0	0	0	0	511	3	
8	0	0	0	0	511	3	
9	0	0	0	0	510	2	
10	0	0	0	0	511	0	
11	0	0	0	0	512	3	
12	0	0	0	0	510	3	
13	0	0	0	0	510	4	
14	0	0	0	0	510	8	
15	0	0	0	0	510	3	
0	0	0	0	0	510	3	
1	0	0	0	0	511	2	
2	0	0	0	0	511	0	
3	0	0	0	0	510	3	
4	0	0	0	0	512	3	
5	0	0	0	0	511	4	
6	0	0	0	0	511	8	
7	0	0	0	0	511	3	
8	0	0	0	0	510	3	
9	0	0	0	0	513	2	
10	0	0	0	0	510	0	
11	0	0	0	0	510	3	
12	0	0	0	0	511	3	
13	0	0	0	0	509	4	
14	0	0	0	0	509	8	
15	0	0	0	0	511	3	
0	0	0	0	0	512	3	
1	0	0	0	0	510	2	
2	0	0	0	0	510	0	
3	0	0	0	0	510	3	
4	0	0	0	0	511	3	
5	0	0	0	0	512	4	
6	0	0	0	0	510	8	
7	0	0	0	0	510	3	
8	0	0	0	0	508	3	
9	0	0	0	0	508	2	
10	0	0	0	0	509	0	
11	0	0	0	0	511	3	
12	0	0	0	0	511	3	
13	0	0	0	0	510	4	
14	0	0	0	0	510	8	
15	0	0	0	0	511	3	
0	0	0	0	0	511	3	
1	0	0	0	0	512	2	
2	0	0	0	0	511	0	
3	0	0	0	0	510	3	
4	0	0	0	0	510	3	
5	0	0	0	0	511	4	
6	0	0	0	0	511	8	
7	0	0	0	0	512	3	
8	0	0	0	0	510	3	
9	0	0	0	0	510	2	
10	0	0	0	0	511	0	
11	0	0	0	0	511	3	
12	0	0	0	0	510	3	
13	0	0	0	0	511	4	
14	0	0	0	0	512	8	
15	0	0	0	0	514	3	
0	0	0	0	0	511	3	
1	0	0	0	0	509	2	
2	0	0	0	0	510	0	
3	0	0	0	0	511	3	
4	0	0	0	0	511	3	
5	0	0	0	0	512	4	
6	0	0	0	0	510	8	
7	0	0	0	0	510	3	
8	0	0	0	0	511	3	
9	0	0	0	0	510	2	
10	0	0	0	0	512	0	
11	0	0	0	0	509	3	
12	0	0	0	0	510	3	
13	0	0	0	0	510	4	
14	0	0	0	0	512	8	
15	0	0	0	0	514	3	
0	0	0	0	0	511	3	
1	0	0	0	0	511	2	
2	0	0	0	0	511	0	
3	0	0	0	0	511	3	
4	0	0	0	0	511	3	
5	0	0	0	0	513	4	
6	0	0	0	0	509	8	
7	0	0	0	0	510	3	
8	0	0	0	0	508	3	
9	0	0	0	0	510	2	
10	0	0	0	0	510	0	
11	0	0	0	0	511	3	
12	0	0	0	0	511	3	
13	0	0	0	0	509	4	
14	0	0	0	0	510	8	
15	0	0	0	0	511	3	
0	0	0	0	0	513	3	
1	0	0	0	0	511	2	
2	0	0	0	0	511	0	
3	0	0	0	0	509	3	
4	0	0	0	0	511	3	
5	0	0	0	0	511	4	
6	0	0	0	0	508	8	
7	0	0	0	0	509	3	
8	0	0	0	0	512	3	
9	0	0	0	0	512	2	
10	0	0	0	0	512	0	
11	0	0	0	0	512	3	
12	0	0	0	0	510	3	
13	0	0	0	0	511	4	
14	0	0	0	0	509	8	
15	0	0	0	0	511	3	
0	0	0	0	0	511	3	
1	0	0	0	0	510	2	
2	0	0	0	0	513	0	
3	0	0	0	0	510	3	
4	0	0	0	0	510	3	
5	0	0	0	0	510	4	
6	0	0	0	0	508	8	
7	0	0	0	0	512	3	
8	0	0	0	0	511	3	
9	0	0	0	0	509	2	
10	0	0	0	0	510	0	
11	0	0	0	0	510	3	
12	0	0	0	0	509	3	
13	0	0	0	0	511	4	
14	0	0	0	0	510	8	
15	0	0	0	0	510	3	
0	0	0	0	0	512	3	
1	0	0	0	0	511	2	
2	0	0	0	0	511	0	
3	0	0	0	0	511	3	
4	0	0	0	0	512	3	
5	0	0	0	0	512	4	
6	0	0	0	0	509	8	
7	0	0	0	0	510	3	
8	0	0	0	0	512	3	
9	0	0	0	0	511	2	
10	0	0	0	0	512	0	
11	0	0	0	0	511	3	
12	0	0	0	0	510	3	
13	0	0	0	0	510	4	
14	0	0	0	0	508	8	
15	0	0	0	0	509	3	
0	0	0	0	0	510	3	
1	0	0	0	0	511	2	
2	0	0	0	0	513	0	
3	0	0	0	0	512	3	
4	0	0	0	0	510	3	
5	0	0	0	0	514	4	
6	0	0	0	0	511	8	
7	0	0	0	0	511	3	
8	0	0	0	0	512	3	
9	0	0	0	0	511	2	
10	0	0	0	0	511	0	
11	0	0	0	0	509	3	
12	0	0	0	0	510	3	
13	0	0	0	0	508	4	
14	0	0	0	0	510	8	
15	0	0	0	0	511	3	
0	0	0	0	0	511	3	
1	0	0	0	0	510	2	
2	0	0	0	0	512	0	
3	0	0	0	0	511	3	
4	0	0	0	0	510	3	
5	0	0	0	0	512	4	
6	0	0	0	0	510	8	
7	0	0	0	0	512	3	
8	0	0	0	0	510	3	
9	0	0	0	0	510	2	
10	0	0	0	0	508	0	
11	0	0	0	0	510	3	
12	0	0	0	0	511	3	
13	0	0	0	0	511	4	
14	0	0	0	0	513	8	
15	0	0	0	0	511	3	
0	0	0	0	0	512	3	
1	0	0	0	0	511	2	
2	0	0	0	0	512	0	
3	0	0	0	0	511	3	
4	0	0	0	0	511	3	
5	0	0	0	0	511	4	
6	0	0	0	0	509	8	
7	0	0	0	0	510	3	
8	0	0	0	0	510	3	
9	0	0	0	0	511	2	
10	0	0	0	0	512	0	
11	0	0	0	0	510	3	
12	0	0	0	0	510	3	
13	0	0	0	0	510	4	
14	0	0	0	0	511	8	
15	0	0	0	0	510	3	
0	0	0	0	0	513	3	
1	0	0	0	0	509	2	
2	0	0	0	0	510	0	
3	0	0	0	0	514	3	
4	0	0	0	0	509	3	
5	0	0	0	0	510	4	
6	0	0	0	0	510	8	
7	0	0	0	0	512	3	
8	0	0	0	0	511	3	
9	0	0	0	0	510	2	
10	0	0	0	0	510	0	
11	0	0	0	0	509	3	
12	0	0	0	0	512	3	
13	0	0	0	0	511	4	
14	0	0	0	0	511	8	
15	0	0	0	0	510	3	
0	0	0	0	0	511	3	
1	0	0	0	0	510	2	
2	0	0	0	0	511	0	
3	0	0	0	0	514	3	
4	0	0	0	0	511	3	
5	0	0	0	0	510	4	
6	0	0	0	0	511	8	
7	0	0	0	0	511	3	
8	0	0	0	0	510	3	
9	0	0	0	0	511	2	
10	0	0	0	0	512	0	
11	0	0	0	0	509	3	
12	0	0	0	0	511	3	
13	0	0	0	0	510	4	
14	0	0	0	0	511	8	
15	0	0	0	0	511	3	
0	0	0	0	0	512	3	
1	0	0	0	0	511	2	
2	0	0	0	0	509	0	
3	0	0	0	0	510	3	
4	0	0	0	0	508	3	
5	0	0	0	0	509	4	
6	0	0	0	0	511	8	
7	0	0	0	0	512	3	
8	0	0	0	0	511	3	
9	0	0	0	0	511	2	
10	0	0	0	0	510	0	
11	0	0	0	0	509	3	
12	0	0	0	0	510	3	
13	0	0	0	0	511	4	
14	0	0	0	0	511	8	
15	0	0	0	0	511	3	
0	0	0	0	0	510	3	
1	0	0	0	0	512	2	
2	0	0	0	0	511	0	
3	0	0	0	0	511	3	
4	0	0	0	0	512	3	
5	0	0	0	0	508	4	
6	0	0	0	0	511	8	
7	0	0	0	0	511	3	
8	0	0	0	0	511	3	
9	0	0	0	0	513	2	
10	0	0	0	0	510	0	
11	0	0	0	0	512	3	
12	0	0	0	0	510	3	
13	0	0	0	0	511	4	
14	0	0	0	0	510	8	
15	0	0	0	0	511	3	
0	0	0	0	0	511	3	
1	0	0	0	0	513	2	
2	0	0	0	0	512	0	
3	0	0	0	0	512	3	
4	0	0	0	0	510	3	
5	0	0	0	0	509	4	
6	0	0	0	0	510	8	
7	0	0	0	0	510	3	
8	0	0	0	0	511	3	
9	0	0	0	0	511	2	
10	0	0	0	0	511	0	
11	0	0	0	0	510	3	
12	0	0	0	0	510	3	
13	0	0	0	0	510	4	
14	0	0	0	0	510	8	
15	0	0	0	0	510	3	
0	0	0	0	0	510	3	
1	0	0	0	0	512	2	
2	0	0	0	0	511	0	
3	0	0	0	0	512	3	
4	0	0	0	0	510	3	
5	0	0	0	0	511	4	
6	0	0	0	0	513	8	
7	0	0	0	0	510	3	
8	0	0	0	0	510	3	
9	0	0	0	0	509	2	
10	0	0	0	0	510	0	
11	0	0	0	0	511	3	
12	0	0	0	0	509	3	
13	0	0	0	0	510	4	
14	0	0	0	0	512	8	
15	0	0	0	0	511	3	
0	0	0	0	0	510	3	
1	0	0	0	0	511	2	
2	0	0	0	0	511	0	
3	0	0	0	0	512	3	
4	0	0	0	0	510	3	
5	0	0	0	0	511	4	
6	0	0	0	0	510	8	
7	0	0	0	0	512	3	
8	0	0	0	0	509	3	
9	0	0	0	0	512	2	
10	0	0	0	0	511	0	
11	0	0	0	0	509	3	
12	0	0	0	0	511	3	
13	0	0	0	0	511	4	
14	0	0	0	0	511	8	
15	0	0	0	0	511	3	
0	0	0	0	0	512	3	
1	0	0	0	0	510	2	
2	0	0	0	0	512	0	
3	0	0	0	0	510	3	
4	0	0	0	0	514	3	
5	0	0	0	0	510	4	
6	0	0	0	0	510	8	
7	0	0	0	0	513	3	
8	0	0	0	0	511	3	
9	0	0	0	0	508	2	
10	0	0	0	0	511	0	
11	0	0	0	0	510	3	
12	0	0	0	0	507	3	
13	0	0	0	0	510	4	
14	0	0	0	0	512	8	
15	0	0	0	0	510	3	
0	0	0	0	0	511	3	
1	0	0	0	0	511	2	
2	0	0	0	0	512	0	
3	0	0	0	0	511	3	
4	0	0	0	0	512	3	
5	0	0	0	0	511	4	
6	0	0	0	0	510	8	
7	0	0	0	0	510	3	
8	0	0	0	0	510	3	
9	0	0	0	0	513	2	
10	0	0	0	0	511	0	
11	0	0	0	0	512	3	
12	0	0	0	0	511	3	
13	0	0	0	0	509	4	
14	0	0	0	0	510	8	
15	0	0	0	0	510	3	
0	0	0	0	0	510	3	
1	0	0	0	0	511	2	
2	0	0	0	0	510	0	
3	0	0	0	0	513	3	
4	0	0	0	0	509	3	
5	0	0	0	0	508	4	
6	0	0	0	0	509	8	
7	0	0	0	0	510	3	
8	0	0	0	0	510	3	
9	0	0	0	0	512	2	
10	0	0	0	0	509	0	
11	0	0	0	0	510	3	
12	0	0	0	0	509	3	
13	0	0	0	0	510	4	
14	0	0	0	0	511	8	
15	0	0	0	0	513	3	
0	0	0	0	0	511	3	
1	0	0	0	0	513	2	
2	0	0	0	0	508	0	
3	0	0	0	0	512	3	
4	0	0	0	0	511	3	
5	0	0	0	0	512	4	
6	0	0	0	0	511	8	
7	0	0	0	0	510	3	
8	0	0	0	0	513	3	
9	0	0	0	0	511	2	
10	0	0	0	0	510	0	
11	0	0	0	0	511	3	
12	0	0	0	0	510	3	
13	0	0	0	0	511	4	
14	0	0	0	0	509	8	
15	0	0	0	0	511	3	
0	0	0	0	0	512	3	
1	0	0	0	0	513	2	
2	0	0	0	0	512	0	
3	0	0	0	0	509	3	
4	0	0	0	0	511	3	
5	0	0	0	0	510	4	
6	0	0	0	0	511	8	
7	0	0	0	0	512	3	
8	0	0	0	0	511	3	
9	0	0	0	0	509	2	
10	0	0	0	0	510	0	
11	0	0	0	0	512	3	
12	0	0	0	0	510	3	
13	0	0	0	0	510	4	
14	0	0	0	0	513	8	
15	0	0	0	0	511	3	
0	0	0	0	0	512	3	
1	0	0	0	0	512	2	
2	0	0	0	0	509	0	
3	0	0	0	0	511	3	
4	0	0	0	0	511	3	
5	0	0	0	0	509	4	
6	0	0	0	0	510	8	
7	0	0	0	0	512	3	
8	0	0	0	0	509	3	
9	0	0	0	0	509	2	
10	0	0	0	0	510	0	
11	0	0	0	0	508	3	
12	0	0	0	0	511	3	
13	0	0	0	0	510	4	
14	0	0	0	0	510	8	
15	0	0	0	0	511	3	
0	0	0	0	0	509	3	
1	0	0	0	0	512	2	
2	0	0	0	0	510	0	
3	0	0	0	0	512	3	
4	0	0	0	0	511	3	
5	0	0	0	0	509	4	
6	0	0	0	0	511	8	
7	0	0	0	0	512	3	
8	0	0	0	0	510	3	
9	0	0	0	0	512	2	
10	0	0	0	0	512	0	
11	0	0	0	0	510	3	
12	0	0	0	0	510	3	
13	0	0	0	0	508	4	
14	0	0	0	0	511	8	
15	0	0	0	0	510	3	
0	0	0	0	0	510	3	
1	0	0	0	0	510	2	
2	0	0	0	0	511	0	
3	0	0	0	0	512	3	
4	0	0	0	0	512	3	
5	0	0	0	0	511	4	
6	0	0	0	0	511	8	
7	0	0	0	0	509	3	
8	0	0	0	0	508	3	
9	0	0	0	0	511	2	
10	0	0	0	0	512	0	
11	0	0	0	0	511	3	
12	0	0	0	0	509	3	
13	0	0	0	0	511	4	
14	0	0	0	0	512	8	
15	0	0	0	0	510	3	
0	0	0	0	0	509	3	
1	0	0	0	0	511	2	
2	0	0	0	0	512	0	
3	0	0	0	0	514	3	
4	0	0	0	0	511	3	
5	0	0	0	0	510	4	
6	0	0	0	0	510	8	
7	0	0	0	0	513	3	
8	0	0	0	0	510	3	
9	0	0	0	0	512	2	
10	0	0	0	0	510	0	
11	0	0	0	0	508	3	
12	0	0	0	0	509	3	
13	0	0	0	0	509	4	
14	0	0	0	0	510	8	
15	0	0	0	0	511	3	
0	0	0	0	0	511	3	
1	0	0	0	0	511	2	
2	0	0	0	0	510	0	
3	0	0	0	0	512	3	
4	0	0	0	0	510	3	
5	0	0	0	0	510	4	
6	0	0	0	0	513	8	
7	0	0	0	0	511	3	
8	0	0	0	0	513	3	
9	0	0	0	0	509	2	
10	0	0	0	0	509	0	
11	0	0	0	0	512	3	
12	0	0	0	0	509	3	
13	0	0	0	0	508	4	
14	0	0	0	0	511	8	
15	0	0	0	0	508	3	
0	0	0	0	0	509	3	
1	0	0	0	0	511	2	
2	0	0	0	0	512	0	
3	0	0	0	0	512	3	
4	0	0	0	0	513	3	
5	0	0	0	0	512	4	
6	0	0	0	0	512	8	
7	0	0	0	0	510	3	
8	0	0	0	0	510	3	
9	0	0	0	0	510	2	
10	0	0	0	0	512	0	
11	0	0	0	0	511	3	
12	0	0	0	0	511	3	
13	0	0	0	0	510	4	
14	0	0	0	0	511	8	
15	0	0	0	0	511	3	
0	0	0	0	0	511	3	
1	0	0	0	0	512	2	
2	0	0	0	0	511	0	
3	0	0	0	0	508	3	
4	0	0	0	0	510	3	
5	0	0	0	0	512	4	
6	0	0	0	0	511	8	
7	0	0	0	0	511	3	
8	0	0	0	0	511	3	
9	0	0	0	0	510	2	
10	0	0	0	0	512	0	
11	0	0	0	0	511	3	
12	0	0	0	0	510	3	
13	0	0	0	0	510	4	
14	0	0	0	0	511	8	
15	0	0	0	0	511	3	
0	0	0	0	0	512	3	
1	0	0	0	0	511	2	
2	0	0	0	0	512	0	
3	0	0	0	0	511	3	
4	0	0	0	0	512	3	
5	0	0	0	0	509	4	
6	0	0	0	0	509	8	
7	0	0	0	0	512	3	
8	0	0	0	0	512	3	
9	0	0	0	0	512	2	
10	0	0	0	0	508	0	
11	0	0	0	0	513	3	
12	0	0	0	0	509	3	
13	0	0	0	0	510	4	
14	0	0	0	0	509	8	
15	0	0	0	0	512	3	
0	0	0	0	0	511	3	
1	0	0	0	0	511	2	
2	0	0	0	0	511	0	
3	0	0	0	0	509	3	
4	0	0	0	0	510	3	
5	0	0	0	0	509	4	
6	0	0	0	0	511	8	
7	0	0	0	0	510	3	
8	0	0	0	0	512	3	
9	0	0	0	0	510	2	
10	0	0	0	0	509	0	
11	0	0	0	0	510	3	
12	0	0	0	0	509	3	
13	0	0	0	0	512	4	
14	0	0	0	0	513	8	
15	0	0	0	0	512	3	
0	0	0	0	0	510	3	
1	0	0	0	0	508	2	
2	0	0	0	0	513	0	
3	0	0	0	0	513	3	
4	0	0	0	0	510	3	
5	0	0	0	0	508	4	
6	0	0	0	0	510	8	
7	0	0	0	0	512	3	
8	0	0	0	0	511	3	
9	0	0	0	0	512	2	
10	0	0	0	0	511	0	
11	0	0	0	0	507	3	
12	0	0	0	0	510	3	
13	0	0	0	0	510	4	
14	0	0	0	0	512	8	
15	0	0	0	0	510	3	
0	0	0	0	0	509	3	
1	0	0	0	0	511	2	
2	0	0	0	0	510	0	
3	0	0	0	0	512	3	
4	0	0	0	0	510	3	
5	0	0	0	0	511	4	
6	0	0	0	0	513	8	
7	0	0	0	0	511	3	
8	0	0	0	0	512	3	
9	0	0	0	0	511	2	
10	0	0	0	0	510	0	
11	0	0	0	0	511	3	
12	0	0	0	0	511	3	
13	0	0	0	0	511	4	
14	0	0	0	0	510	8	
15	0	0	0	0	512	3	
0	0	0	0	0	508	3	
1	0	0	0	0	511	2	
2	0	0	0	0	511	0	
3	0	0	0	0	508	3	
4	0	0	0	0	510	3	
5	0	0	0	0	510	4	
6	0	0	0	0	511	8	
7	0	0	0	0	511	3	
8	0	0	0	0	511	3	
9	0	0	0	0	510	2	
10	0	0	0	0	509	0	
11	0	0	0	0	511	3	
12	0	0	0	0	511	3	
13	0	0	0	0	512	4	
14	0	0	0	0	511	8	
15	0	0	0	0	512	3	
0	0	0	0	0	512	3	
1	0	0	0	0	511	2	
2	0	0	0	0	512	0	
3	0	0	0	0	512	3	
4	0	0	0	0	509	3	
5	0	0	0	0	512	4	
6	0	0	0	0	511	8	
7	0	0	0	0	511	3	
8	0	0	0	0	510	3	
9	0	0	0	0	512	2	
10	0	0	0	0	510	0	
11	0	0	0	0	511	3	
12	0	0	0	0	509	3	
13	0	0	0	0	510	4	
14	0	0	0	0	512	8	
15	0	0	0	0	512	3	
0	0	0	0	0	510	3	
1	0	0	0	0	511	2	
2	0	0	0	0	511	0	
3	0	0	0	0	510	3	
4	0	0	0	0	510	3	
5	0	0	0	0	511	4	
6	0	0	0	0	511	8	
7	0	0	0	0	511	3	
8	0	0	0	0	510	3	
9	0	0	0	0	510	2	
10	0	0	0	0	508	0	
11	0	0	0	0	508	3	
12	0	0	0	0	511	3	
13	0	0	0	0	510	4	
14	0	0	0	0	510	8	
15	0	0	0	0	509	3	
0	0	0	0	0	511	3	
1	0	0	0	0	512	2	
2	0	0	0	0	512	0	
3	0	0	0	0	512	3	
4	0	0	0	0	511	3	
5	0	0	0	0	511	4	
6	0	0	0	0	511	8	
7	0	0	0	0	508	3	
8	0	0	0	0	511	3	
9	0	0	0	0	510	2	
10	0	0	0	0	511	0	
11	0	0	0	0	510	3	
12	0	0	0	0	513	3	
13	0	0	0	0	512	4	
14	0	0	0	0	511	8	
15	0	0	0	0	510	3	
0	0	0	0	0	510	3	
1	0	0	0	0	510	2	
2	0	0	0	0	508	0	
3	0	0	0	0	510	3	
4	0	0	0	0	511	3	
5	0	0	0	0	512	4	
6	0	0	0	0	510	8	
7	0	0	0	0	511	3	
8	0	0	0	0	511	3	
9	0	0	0	0	511	2	
10	0	0	0	0	512	0	
11	0	0	0	0	512	3	
12	0	0	0	0	510	3	
13	0	0	0	0	510	4	
14	0	0	0	0	510	8	
15	0	0	0	0	510	3	
0	0	0	0	0	509	3	
1	0	0	0	0	509	2	
2	0	0	0	0	511	0	
3	0	0	0	0	511	3	
4	0	0	0	0	510	3	
5	0	0	0	0	510	4	
6	0	0	0	0	511	8	
7	0	0	0	0	511	3	
8	0	0	0	0	512	3	
9	0	0	0	0	511	2	
10	0	0	0	0	509	0	
11	0	0	0	0	509	3	
12	0	0	0	0	510	3	
13	0	0	0	0	512	4	
14	0	0	0	0	511	8	
15	0	0	0	0	509	3	
0	0	0	0	0	512	3	
1	0	0	0	0	511	2	
2	0	0	0	0	511	0	
3	0	0	0	0	511	3	
4	0	0	0	0	511	3	
5	0	0	0	0	510	4	
6	0	0	0	0	512	8	
7	0	0	0	0	512	3	
8	0	0	0	0	509	3	
9	0	0	0	0	511	2	
10	0	0	0	0	510	0	
11	0	0	0	0	510	3	
12	0	0	0	0	511	3	
13	0	0	0	0	510	4	
14	0	0	0	0	511	8	
15	0	0	0	0	509	3	
0	0	0	0	0	511	3	
1	0	0	0	0	511	2	
2	0	0	0	0	510	0	
3	0	0	0	0	510	3	
4	0	0	0	0	510	3	
5	0	0	0	0	513	4	
6	0	0	0	0	509	8	
7	0	0	0	0	512	3	
8	0	0	0	0	512	3	
9	0	0	0	0	513	2	
10	0	0	0	0	511	0	
11	0	0	0	0	510	3	
12	0	0	0	0	511	3	
13	0	0	0	0	512	4	
14	0	0	0	0	510	8	
15	0	0	0	0	510	3	
0	0	0	0	0	510	3	
1	0	0	0	0	511	2	
2	0	0	0	0	511	0	
3	0	0	0	0	512	3	
4	0	0	0	0	512	3	
5	0	0	0	0	511	4	
6	0	0	0	0	510	8	
7	0	0	0	0	511	3	
8	0	0	0	0	511	3	
9	0	0	0	0	511	2	
10	0	0	0	0	510	0	
11	0	0	0	0	511	3	
12	0	0	0	0	511	3	
13	0	0	0	0	510	4	
14	0	0	0	0	510	8	
15	0	0	0	0	510	3	
0	0	0	0	0	511	3	
1	0	0	0	0	512	2	
2	0	0	0	0	511	0	
3	0	0	0	0	510	3	
4	0	0	0	0	511	3	
5	0	0	0	0	511	4	
6	0	0	0	0	509	8	
7	0	0	0	0	509	3	
8	0	0	0	0	510	3	
9	0	0	0	0	508	2	
10	0	0	0	0	509	0	
11	0	0	0	0	508	3	
12	0	0	0	0	511	3	
13	0	0	0	0	512	4	
14	0	0	0	0	511	8	
15	0	0	0	0	511	3	
0	0	0	0	0	509	3	
1	0	0	0	0	512	2	
2	0	0	0	0	512	0	
3	0	0	0	0	510	3	
4	0	0	0	0	509	3	
5	0	0	0	0	511	4	
6	0	0	0	0	512	8	
7	0	0	0	0	510	3	
8	0	0	0	0	511	3	
9	0	0	0	0	512	2	
10	0	0	0	0	510	0	
11	0	0	0	0	511	3	
12	0	0	0	0	511	3	
13	0	0	0	0	511	4	
14	0	0	0	0	511	8	
15	0	0	0	0	509	3	
0	0	0	0	0	509	3	
1	0	0	0	0	510	2	
2	0	0	0	0	511	0	
3	0	0	0	0	509	3	
4	0	0	0	0	511	3	
5	0	0	0	0	512	4	
6	0	0	0	0	511	8	
7	0	0	0	0	511	3	
8	0	0	0	0	511	3	
9	0	0	0	0	512	2	
10	0	0	0	0	508	0	
11	0	0	0	0	511	3	
12	0	0	0	0	511	3	
13	0	0	0	0	511	4	
14	0	0	0	0	510	8	
15	0	0	0	0	512	3	
0	0	0	0	0	512	3	
1	0	0	0	0	511	2	
2	0	0	0	0	510	0	
3	0	0	0	0	511	3	
4	0	0	0	0	513	3	
5	0	0	0	0	510	4	
6	0	0	0	0	510	8	
7	0	0	0	0	509	3	
8	0	0	0	0	511	3	
9	0	0	0	0	510	2	
10	0	0	0	0	512	0	
11	0	0	0	0	511	3	
12	0	0	0	0	509	3	
13	0	0	0	0	509	4	
14	0	0	0	0	514	8	
15	0	0	0	0	510	3	
0	0	0	0	0	510	3	
1	0	0	0	0	509	2	
2	0	0	0	0	509	0	
3	0	0	0	0	510	3	
4	0	0	0	0	511	3	
5	0	0	0	0	513	4	
6	0	0	0	0	510	8	
7	0	0	0	0	511	3	
8	0	0	0	0	511	3	
9	0	0	0	0	510	2	
10	0	0	0	0	511	0	
11	0	0	0	0	511	3	
12	0	0	0	0	512	3	
13	0	0	0	0	511	4	
14	0	0	0	0	509	8	
15	0	0	0	0	511	3	
0	0	0	0	0	510	3	
1	0	0	0	0	509	2	
2	0	0	0	0	510	0	
3	0	0	0	0	512	3	
4	0	0	0	0	512	3	
5	0	0	0	0	513	4	
6	0	0	0	0	513	8	
7	0	0	0	0	510	3	
8	0	0	0	0	512	3	
9	0	0	0	0	510	2	
10	0	0	0	0	509	0	
11	0	0	0	0	510	3	
12	0	0	0	0	512	3	
13	0	0	0	0	513	4	
14	0	0	0	0	510	8	
15	0	0	0	0	511	3	
0	0	0	0	0	508	3	
1	0	0	0	0	508	2	
2	0	0	0	0	509	0	
3	0	0	0	0	511	3	
4	0	0	0	0	508	3	
5	0	0	0	0	510	4	
6	0	0	0	0	509	8	
7	0	0	0	0	512	3	
8	0	0	0	0	510	3	
9	0	0	0	0	512	2	
10	0	0	0	0	510	0	
11	0	0	0	0	511	3	
12	0	0	0	0	511	3	
13	0	0	0	0	509	4	
14	0	0	0	0	513	8	
15	0	0	0	0	512	3	
0	0	0	0	0	510	3	
1	0	0	0	0	512	2	
2	0	0	0	0	513	0	
3	0	0	0	0	508	3	
4	0	0	0	0	511	3	
5	0	0	0	0	509	4	
6	0	0	0	0	511	8	
7	0	0	0	0	511	3	
8	0	0	0	0	511	3	
9	0	0	0	0	511	2	
10	0	0	0	0	512	0	
11	0	0	0	0	511	3	
12	0	0	0	0	509	3	
13	0	0	0	0	510	4	
14	0	0	0	0	511	8	
15	0	0	0	0	511	3	
0	0	0	0	0	509	3	
1	0	0	0	0	510	2	
2	0	0	0	0	511	0	
3	0	0	0	0	510	3	
4	0	0	0	0	508	3	
5	0	0	0	0	509	4	
6	0	0	0	0	511	8	
7	0	0	0	0	510	3	
8	0	0	0	0	510	3	
9	0	0	0	0	512	2	
10	0	0	0	0	513	0	
11	0	0	0	0	512	3	
12	0	0	0	0	511	3	
13	0	0	0	0	512	4	
14	0	0	0	0	511	8	
15	0	0	0	0	509	3	
0	0	0	0	0	510	3	
1	0	0	0	0	512	2	
2	0	0	0	0	513	0	
3	0	0	0	0	512	3	
4	0	0	0	0	510	3	
5	0	0	0	0	512	4	
6	0	0	0	0	511	8	
7	0	0	0	0	510	3	
8	0	0	0	0	507	3	
9	0	0	0	0	511	2	
10	0	0	0	0	512	0	
11	0	0	0	0	512	3	
12	0	0	0	0	511	3	
13	0	0	0	0	513	4	
14	0	0	0	0	511	8	
15	0	0	0	0	511	3	
0	0	0	0	0	511	3	
1	0	0	0	0	510	2	
2	0	0	0	0	511	0	
3	0	0	0	0	511	3	
4	0	0	0	0	510	3	
5	0	0	0	0	510	4	
6	0	0	0	0	509	8	
7	0	0	0	0	510	3	
8	0	0	0	0	510	3	
9	0	0	0	0	510	2	
10	0	0	0	0	512	0	
11	0	0	0	0	510	3	
12	0	0	0	0	511	3	
13	0	0	0	0	512	4	
14	0	0	0	0	510	8	
15	0	0	0	0	508	3	
0	0	0	0	0	509	3	
1	0	0	0	0	509	2	
2	0	0	0	0	511	0	
3	0	0	0	0	511	3	
4	0	0	0	0	510	3	
5	0	0	0	0	511	4	
6	0	0	0	0	510	8	
7	0	0	0	0	512	3	
8	0	0	0	0	511	3	
9	0	0	0	0	512	2	
10	0	0	0	0	511	0	
11	0	0	0	0	511	3	
12	0	0	0	0	511	3	
13	0	0	0	0	511	4	
14	0	0	0	0	510	8	
15	0	0	0	0	511	3	
0	0	0	0	0	513	3	
1	0	0	0	0	512	2	
2	0	0	0	0	510	0	
3	0	0	0	0	510	3	
4	0	0	0	0	512	3	
5	0	0	0	0	512	4	
6	0	0	0	0	506	8	
7	0	0	0	0	509	3	
8	0	0	0	0	512	3	
9	0	0	0	0	512	2	
10	0	0	0	0	510	0	
11	0	0	0	0	511	3	
12	0	0	0	0	511	3	
13	0	0	0	0	509	4	
14	0	0	0	0	508	8	
15	0	0	0	0	508	3	
0	0	0	0	0	512	3	
1	0	0	0	0	511	2	
2	0	0	0	0	510	0	
3	0	0	0	0	511	3	
4	0	0	0	0	509	3	
5	0	0	0	0	511	4	
6	0	0	0	0	510	8	
7	0	0	0	0	511	3	
8	0	0	0	0	509	3	
9	0	0	0	0	511	2	
10	0	0	0	0	510	0	
11	0	0	0	0	509	3	
12	0	0	0	0	510	3	
13	0	0	0	0	511	4	
14	0	0	0	0	509	8	
15	0	0	0	0	509	3	
0	0	0	0	0	511	3	
1	0	0	0	0	511	2	
2	0	0	0	0	511	0	
3	0	0	0	0	510	3	
4	0	0	0	0	512	3	
5	0	0	0	0	511	4	
6	0	0	0	0	511	8	
7	0	0	0	0	512	3	
8	0	0	0	0	510	3	
9	0	0	0	0	512	2	
10	0	0	0	0	508	0	
11	0	0	0	0	511	3	
12	0	0	0	0	512	3	
13	0	0	0	0	509	4	
14	0	0	0	0	511	8	
15	0	0	0	0	509	3	
0	0	0	0	0	510	3	
1	0	0	0	0	510	2	
2	0	0	0	0	511	0	
3	0	0	0	0	510	3	
4	0	0	0	0	511	3	
5	0	0	0	0	512	4	
6	0	0	0	0	511	8	
7	0	0	0	0	513	3	
8	0	0	0	0	509	3	
9	0	0	0	0	509	2	
10	0	0	0	0	511	0	
11	0	0	0	0	512	3	
12	0	0	0	0	511	3	
13	0	0	0	0	514	4	
14	0	0	0	0	511	8	
15	0	0	0	0	508	3	
0	0	0	0	0	508	3	
1	0	0	0	0	509	2	
2	0	0	0	0	512	0	
3	0	0	0	0	512	3	
4	0	0	0	0	512	3	
5	0	0	0	0	509	4	
6	0	0	0	0	511	8	
7	0	0	0	0	510	3	
8	0	0	0	0	511	3	
9	0	0	0	0	511	2	
10	0	0	0	0	511	0	
11	0	0	0	0	511	3	
12	0	0	0	0	511	3	
13	0	0	0	0	510	4	
14	0	0	0	0	510	8	
15	0	0	0	0	511	3	
0	0	0	0	0	512	3	
1	0	0	0	0	510	2	
2	0	0	0	0	511	0	
3	0	0	0	0	510	3	
4	0	0	0	0	511	3	
5	0	0	0	0	511	4	
6	0	0	0	0	511	8	
7	0	0	0	0	510	3	
8	0	0	0	0	511	3	
9	0	0	0	0	510	2	
10	0	0	0	0	511	0	
11	0	0	0	0	510	3	
12	0	0	0	0	510	3	
13	0	0	0	0	511	4	
14	0	0	0	0	510	8	
15	0	0	0	0	510	3	
0	0	0	0	0	511	3	
1	0	0	0	0	511	2	
2	0	0	0	0	511	0	
3	0	0	0	0	513	3	
4	0	0	0	0	510	3	
5	0	0	0	0	512	4	
6	0	0	0	0	509	8	
7	0	0	0	0	509	3	
8	0	0	0	0	511	3	
9	0	0	0	0	513	2	
10	0	0	0	0	512	0	
11	0	0	0	0	509	3	
12	0	0	0	0	508	3	
13	0	0	0	0	510	4	
14	0	0	0	0	511	8	
15	0	0	0	0	511	3	
0	0	0	0	0	508	3	
1	0	0	0	0	511	2	
2	0	0	0	0	510	0	
3	0	0	0	0	512	3	
4	0	0	0	0	513	3	
5	0	0	0	0	511	4	
6	0	0	0	0	512	8	
7	0	0	0	0	514	3	
8	0	0	0	0	510	3	
9	0	0	0	0	509	2	
10	0	0	0	0	510	0	
11	0	0	0	0	510	3	
12	0	0	0	0	511	3	
13	0	0	0	0	512	4	
14	0	0	0	0	513	8	
15	0	0	0	0	508	3	
0	0	0	0	0	508	3	
1	0	0	0	0	508	2	
2	0	0	0	0	510	0	
3	0	0	0	0	512	3	
4	0	0	0	0	511	3	
5	0	0	0	0	512	4	
6	0	0	0	0	511	8	
7	0	0	0	0	512	3	
8	0	0	0	0	510	3	
9	0	0	0	0	511	2	
10	0	0	0	0	513	0	
11	0	0	0	0	510	3	
12	0	0	0	0	511	3	
13	0	0	0	0	510	4	
14	0	0	0	0	512	8	
15	0	0	0	0	513	3	
0	0	0	0	0	514	3	
1	0	0	0	0	511	2	
2	0	0	0	0	510	0	
3	0	0	0	0	509	3	
4	0	0	0	0	510	3	
5	0	0	0	0	511	4	
6	0	0	0	0	510	8	
7	0	0	0	0	511	3	
8	0	0	0	0	511	3	
9	0	0	0	0	509	2	
10	0	0	0	0	510	0	
11	0	0	0	0	511	3	
12	0	0	0	0	512	3	
13	0	0	0	0	513	4	
14	0	0	0	0	512	8	
15	0	0	0	0	509	3	
0	0	0	0	0	510	3	
1	0	0	0	0	512	2	
2	0	0	0	0	510	0	
3	0	0	0	0	509	3	
4	0	0	0	0	509	3	
5	0	0	0	0	510	4	
6	0	0	0	0	511	8	
7	0	0	0	0	511	3	
8	0	0	0	0	512	3	
9	0	0	0	0	511	2	
10	0	0	0	0	511	0	
11	0	0	0	0	512	3	
12	0	0	0	0	510	3	
13	0	0	0	0	510	4	
14	0	0	0	0	511	8	
15	0	0	0	0	511	3	
0	0	0	0	0	511	3	
1	0	0	0	0	510	2	
2	0	0	0	0	509	0	
3	0	0	0	0	511	3	
4	0	0	0	0	511	3	
5	0	0	0	0	512	4	
6	0	0	0	0	510	8	
7	0	0	0	0	510	3	
8	0	0	0	0	510	3	
9	0	0	0	0	513	2	
10	0	0	0	0	513	0	
11	0	0	0	0	511	3	
12	0	0	0	0	509	3	
13	0	0	0	0	510	4	
14	0	0	0	0	511	8	
15	0	0	0	0	512	3	
0	0	0	0	0	513	3	
1	0	0	0	0	512	2	
2	0	0	0	0	509	0	
3	0	0	0	0	508	3	
4	0	0	0	0	511	3	
5	0	0	0	0	509	4	
6	0	0	0	0	512	8	
7	0	0	0	0	511	3	
8	0	0	0	0	511	3	
9	0	0	0	0	511	2	
10	0	0	0	0	511	0	
11	0	0	0	0	509	3	
12	0	0	0	0	510	3	
13	0	0	0	0	510	4	
14	0	0	0	0	513	8	
15	0	0	0	0	509	3	
0	0	0	0	0	510	3	
1	0	0	0	0	510	2	
2	0	0	0	0	511	0	
3	0	0	0	0	511	3	
4	0	0	0	0	515	3	
5	0	0	0	0	510	4	
6	0	0	0	0	512	8	
7	0	0	0	0	509	3	
8	0	0	0	0	509	3	
9	0	0	0	0	510	2	
10	0	0	0	0	509	0	
11	0	0	0	0	511	3	
12	0	0	0	0	513	3	
13	0	0	0	0	510	4	
14	0	0	0	0	510	8	
15	0	0	0	0	511	3	
0	0	0	0	0	510	3	
1	0	0	0	0	510	2	
2	0	0	0	0	510	0	
3	0	0	0	0	512	3	
4	0	0	0	0	511	3	
5	0	0	0	0	510	4	
6	0	0	0	0	511	8	
7	0	0	0	0	511	3	
8	0	0	0	0	512	3	
9	0	0	0	0	512	2	
10	0	0	0	0	511	0	
11	0	0	0	0	511	3	
12	0	0	0	0	511	3	
13	0	0	0	0	514	4	
14	0	0	0	0	513	8	
15	0	0	0	0	509	3	
0	0	0	0	0	511	3	
1	0	0	0	0	508	2	
2	0	0	0	0	510	0	
3	0	0	0	0	511	3	
4	0	0	0	0	512	3	
5	0	0	0	0	510	4	
6	0	0	0	0	511	8	
7	0	0	0	0	511	3	
8	0	0	0	0	511	3	
9	0	0	0	0	510	2	
10	0	0	0	0	512	0	
11	0	0	0	0	511	3	
12	0	0	0	0	511	3	
13	0	0	0	0	510	4	
14	0	0	0	0	508	8	
15	0	0	0	0	508	3	
0	0	0	0	0	513	3	
1	0	0	0	0	511	2	
2	0	0	0	0	510	0	
3	0	0	0	0	509	3	
4	0	0	0	0	511	3	
5	0	0	0	0	509	4	
6	0	0	0	0	512	8	
7	0	0	0	0	511	3	
8	0	0	0	0	509	3	
9	0	0	0	0	511	2	
10	0	0	0	0	510	0	
11	0	0	0	0	510	3	
12	0	0	0	0	509	3	
13	0	0	0	0	513	4	
14	0	0	0	0	511	8	
15	0	0	0	0	511	3	
0	0	0	0	0	511	3	
1	0	0	0	0	511	2	
2	0	0	0	0	514	0	
3	0	0	0	0	509	3	
4	0	0	0	0	511	3	
5	0	0	0	0	510	4	
6	0	0	0	0	511	8	
7	0	0	0	0	510	3	
8	0	0	0	0	510	3	
9	0	0	0	0	511	2	
10	0	0	0	0	510	0	
11	0	0	0	0	511	3	
12	0	0	0	0	509	3	
13	0	0	0	0	511	4	
14	0	0	0	0	509	8	
15	0	0	0	0	510	3	
0	0	0	0	0	513	3	
1	0	0	0	0	510	2	
2	0	0	0	0	511	0	
3	0	0	0	0	510	3	
4	0	0	0	0	510	3	
5	0	0	0	0	511	4	
6	0	0	0	0	510	8	
7	0	0	0	0	511	3	
8	0	0	0	0	511	3	
9	0	0	0	0	512	2	
10	0	0	0	0	511	0	
11	0	0	0	0	511	3	
12	0	0	0	0	512	3	
13	0	0	0	0	514	4	
14	0	0	0	0	515	8	
15	0	0	0	0	511	3	
0	0	0	0	0	506	3	
1	0	0	0	0	509	2	
2	0	0	0	0	510	0	
3	0	0	0	0	510	3	
4	0	0	0	0	511	3	
5	0	0	0	0	511	4	
6	0	0	0	0	510	8	
7	0	0	0	0	510	3	
8	0	0	0	0	512	3	
9	0	0	0	0	510	2	
10	0	0	0	0	510	0	
11	0	0	0	0	512	3	
12	0	0	0	0	511	3	
13	0	0	0	0	511	4	
14	0	0	0	0	510	8	
15	0	0	0	0	511	3	
0	0	0	0	0	512	3	
1	0	0	0	0	511	2	
2	0	0	0	0	512	0	
3	0	0	0	0	511	3	
4	0	0	0	0	511	3	
5	0	0	0	0	509	4	
6	0	0	0	0	511	8	
7	0	0	0	0	511	3	
8	0	0	0	0	512	3	
9	0	0	0	0	510	2	
10	0	0	0	0	512	0	
11	0	0	0	0	511	3	
12	0	0	0	0	510	3	
13	0	0	0	0	509	4	
14	0	0	0	0	510	8	
15	0	0	0	0	512	3	
0	0	0	0	0	510	3	
1	0	0	0	0	510	2	
2	0	0	0	0	511	0	
3	0	0	0	0	510	3	
4	0	0	0	0	508	3	
5	0	0	0	0	511	4	
6	0	0	0	0	510	8	
7	0	0	0	0	510	3	
8	0	0	0	0	510	3	
9	0	0	0	0	511	2	
10	0	0	0	0	510	0	
11	0	0	0	0	510	3	
12	0	0	0	0	512	3	
13	0	0	0	0	511	4	
14	0	0	0	0	512	8	
15	0	0	0	0	512	3	
0	0	0	0	0	511	3	
1	0	0	0	0	511	2	
2	0	0	0	0	510	0	
3	0	0	0	0	511	3	
4	0	0	0	0	513	3	
5	0	0	0	0	512	4	
6	0	0	0	0	511	8	
7	0	0	0	0	511	3	
8	0	0	0	0	511	3	
9	0	0	0	0	512	2	
10	0	0	0	0	510	0	
11	0	0	0	0	510	3	
12	0	0	0	0	512	3	
13	0	0	0	0	507	4	
14	0	0	0	0	509	8	
15	0	0	0	0	510	3	
0	0	0	0	0	510	3	
1	0	0	0	0	510	2	
2	0	0	0	0	511	0	
3	0	0	0	0	512	3	
4	0	0	0	0	511	3	
5	0	0	0	0	510	4	
6	0	0	0	0	510	8	
7	0	0	0	0	510	3	
8	0	0	0	0	510	3	
9	0	0	0	0	511	2	
10	0	0	0	0	511	0	
11	0	0	0	0	511	3	
12	0	0	0	0	511	3	
13	0	0	0	0	511	4	
14	0	0	0	0	512	8	
15	0	0	0	0	511	3	
0	0	0	0	0	512	3	
1	0	0	0	0	510	2	
2	0	0	0	0	511	0	
3	0	0	0	0	512	3	
4	0	0	0	0	509	3	
5	0	0	0	0	510	4	
6	0	0	0	0	511	8	
7	0	0	0	0	510	3	
8	0	0	0	0	511	3	
9	0	0	0	0	511	2	
10	0	0	0	0	509	0	
11	0	0	0	0	509	3	
12	0	0	0	0	511	3	
13	0	0	0	0	511	4	
14	0	0	0	0	512	8	
15	0	0	0	0	512	3	
0	0	0	0	0	512	3	
1	0	0	0	0	511	2	
2	0	0	0	0	511	0	
3	0	0	0	0	512	3	
4	0	0	0	0	510	3	
5	0	0	0	0	509	4	
6	0	0	0	0	509	8	
7	0	0	0	0	508	3	
8	0	0	0	0	511	3	
9	0	0	0	0	512	2	
10	0	0	0	0	508	0	
11	0	0	0	0	509	3	
12	0	0	0	0	512	3	
13	0	0	0	0	512	4	
14	0	0	0	0	509	8	
15	0	0	0	0	511	3	
0	0	0	0	0	513	3	
1	0	0	0	0	513	2	
2	0	0	0	0	511	0	
3	0	0	0	0	510	3	
4	0	0	0	0	510	3	
5	0	0	0	0	512	4	
6	0	0	0	0	511	8	
7	0	0	0	0	512	3	
8	0	0	0	0	511	3	
9	0	0	0	0	509	2	
10	0	0	0	0	510	0	
11	0	0	0	0	511	3	
12	0	0	0	0	509	3	
13	0	0	0	0	509	4	
14	0	0	0	0	510	8	
15	0	0	0	0	509	3	
0	0	0	0	0	511	3	
1	0	0	0	0	511	2	
2	0	0	0	0	511	0	
3	0	0	0	0	511	3	
4	0	0	0	0	512	3	
5	0	0	0	0	511	4	
6	0	0	0	0	509	8	
7	0	0	0	0	510	3	
8	0	0	0	0	511	3	
9	0	0	0	0	510	2	
10	0	0	0	0	509	0	
11	0	0	0	0	511	3	
12	0	0	0	0	510	3	
13	0	0	0	0	510	4	
14	0	0	0	0	511	8	
15	0	0	0	0	512	3	
0	0	0	0	0	511	3	
1	0	0	0	0	509	2	
2	0	0	0	0	511	0	
3	0	0	0	0	512	3	
4	0	0	0	0	511	3	
5	0	0	0	0	510	4	
6	0	0	0	0	509	8	
7	0	0	0	0	510	3	
8	0	0	0	0	511	3	
9	0	0	0	0	511	2	
10	0	0	0	0	510	0	
11	0	0	0	0	510	3	
12	0	0	0	0	509	3	
13	0	0	0	0	512	4	
14	0	0	0	0	513	8	
15	0	0	0	0	511	3	
0	0	0	0	0	511	3	
1	0	0	0	0	511	2	
2	0	0	0	0	510	0	
3	0	0	0	0	510	3	
4	0	0	0	0	512	3	
5	0	0	0	0	511	4	
6	0	0	0	0	511	8	
7	0	0	0	0	511	3	
8	0	0	0	0	509	3	
9	0	0	0	0	512	2	
10	0	0	0	0	511	0	
11	0	0	0	0	509	3	
12	0	0	0	0	513	3	
13	0	0	0	0	508	4	
14	0	0	0	0	511	8	
15	0	0	0	0	512	3	
0	0	0	0	0	512	3	
1	0	0	0	0	513	2	
2	0	0	0	0	511	0	
3	0	0	0	0	510	3	
4	0	0	0	0	511	3	
5	0	0	0	0	511	4	
6	0	0	0	0	513	8	
7	0	0	0	0	513	3	
8	0	0	0	0	511	3	
9	0	0	0	0	511	2	
10	0	0	0	0	511	0	
11	0	0	0	0	510	3	
12	0	0	0	0	509	3	
13	0	0	0	0	509	4	
14	0	0	0	0	511	8	
15	0	0	0	0	509	3	
0	0	0	0	0	510	3	
1	0	0	0	0	512	2	
2	0	0	0	0	510	0	
3	0	0	0	0	510	3	
4	0	0	0	0	510	3	
5	0	0	0	0	512	4	
6	0	0	0	0	512	8	
7	0	0	0	0	511	3	
8	0	0	0	0	511	3	
9	0	0	0	0	509	2	
10	0	0	0	0	510	0	
11	0	0	0	0	510	3	
12	0	0	0	0	510	3	
13	0	0	0	0	510	4	
14	0	0	0	0	511	8	
15	0	0	0	0	511	3	
0	0	0	0	0	514	3	
1	0	0	0	0	513	2	
2	0	0	0	0	511	0	
3	0	0	0	0	509	3	
4	0	0	0	0	508	3	
5	0	0	0	0	511	4	
6	0	0	0	0	511	8	
7	0	0	0	0	510	3	
8	0	0	0	0	510	3	
9	0	0	0	0	511	2	
10	0	0	0	0	511	0	
11	0	0	0	0	509	3	
12	0	0	0	0	511	3	
13	0	0	0	0	511	4	
14	0	0	0	0	511	8	
15	0	0	0	0	512	3	
0	0	0	0	0	508	3	
1	0	0	0	0	509	2	
2	0	0	0	0	509	0	
3	0	0	0	0	513	3	
4	0	0	0	0	510	3	
5	0	0	0	0	511	4	
6	0	0	0	0	509	8	
7	0	0	0	0	512	3	
8	0	0	0	0	510	3	
9	0	0	0	0	511	2	
10	0	0	0	0	511	0	
11	0	0	0	0	511	3	
12	0	0	0	0	511	3	
13	0	0	0	0	512	4	
14	0	0	0	0	513	8	
15	0	0	0	0	511	3	
0	0	0	0	0	512	3	
1	0	0	0	0	511	2	
2	0	0	0	0	510	0	
3	0	0	0	0	510	3	
4	0	0	0	0	511	3	
5	0	0	0	0	509	4	
6	0	0	0	0	511	8	
7	0	0	0	0	510	3	
8	0	0	0	0	511	3	
9	0	0	0	0	512	2	
10	0	0	0	0	511	0	
11	0	0	0	0	509	3	
12	0	0	0	0	510	3	
13	0	0	0	0	512	4	
14	0	0	0	0	511	8	
15	0	0	0	0	512	3	
0	0	0	0	0	512	3	
1	0	0	0	0	512	2	
2	0	0	0	0	508	0	
3	0	0	0	0	509	3	
4	0	0	0	0	508	3	
5	0	0	0	0	510	4	
6	0	0	0	0	510	8	
7	0	0	0	0	511	3	
8	0	0	0	0	511	3	
9	0	0	0	0	514	2	
10	0	0	0	0	512	0	
11	0	0	0	0	509	3	
12	0	0	0	0	509	3	
13	0	0	0	0	508	4	
14	0	0	0	0	510	8	
15	0	0	0	0	511	3	
0	0	0	0	0	511	3	
1	0	0	0	0	513	2	
2	0	0	0	0	512	0	
3	0	0	0	0	512	3	
4	0	0	0	0	510	3	
5	0	0	0	0	511	4	
6	0	0	0	0	511	8	
7	0	0	0	0	511	3	
8	0	0	0	0	510	3	
9	0	0	0	0	511	2	
10	0	0	0	0	511	0	
11	0	0	0	0	511	3	
12	0	0	0	0	513	3	
13	0	0	0	0	511	4	
14	0	0	0	0	510	8	
15	0	0	0	0	510	3	
0	0	0	0	0	510	3	
1	0	0	0	0	510	2	
2	0	0	0	0	510	0	
3	0	0	0	0	509	3	
4	0	0	0	0	511	3	
5	0	0	0	0	511	4	
6	0	0	0	0	511	8	
7	0	0	0	0	512	3	
8	0	0	0	0	512	3	
9	0	0	0	0	509	2	
10	0	0	0	0	509	0	
11	0	0	0	0	510	3	
12	0	0	0	0	510	3	
13	0	0	0	0	509	4	
14	0	0	0	0	512	8	
15	0	0	0	0	510	3	
0	0	0	0	0	511	3	
1	0	0	0	0	510	2	
2	0	0	0	0	509	0	
3	0	0	0	0	510	3	
4	0	0	0	0	510	3	
5	0	0	0	0	512	4	
6	0	0	0	0	511	8	
7	0	0	0	0	511	3	
8	0	0	0	0	509	3	
9	0	0	0	0	510	2	
10	0	0	0	0	511	0	
11	0	0	0	0	512	3	
12	0	0	0	0	511	3	
13	0	0	0	0	511	4	
14	0	0	0	0	509	8	
15	0	0	0	0	511	3	
0	0	0	0	0	511	3	
1	0	0	0	0	510	2	
2	0	0	0	0	510	0	
3	0	0	0	0	512	3	
4	0	0	0	0	512	3	
5	0	0	0	0	511	4	
6	0	0	0	0	513	8	
7	0	0	0	0	511	3	
8	0	0	0	0	508	3	
9	0	0	0	0	512	2	
10	0	0	0	0	510	0	
11	0	0	0	0	508	3	
12	0	0	0	0	510	3	
13	0	0	0	0	510	4	
14	0	0	0	0	511	8	
15	0	0	0	0	510	3	
0	0	0	0	0	511	3	
1	0	0	0	0	509	2	
2	0	0	0	0	510	0	
3	0	0	0	0	512	3	
4	0	0	0	0	511	3	
5	0	0	0	0	509	4	
6	0	0	0	0	512	8	
7	0	0	0	0	510	3	
8	0	0	0	0	510	3	
9	0	0	0	0	508	2	
10	0	0	0	0	511	0	
11	0	0	0	0	511	3	
12	0	0	0	0	510	3	
13	0	0	0	0	512	4	
14	0	0	0	0	512	8	
15	0	0	0	0	512	3	
0	0	0	0	0	509	3	
1	0	0	0	0	509	2	
2	0	0	0	0	510	0	
3	0	0	0	0	511	3	
4	0	0	0	0	511	3	
5	0	0	0	0	513	4	
6	0	0	0	0	511	8	
7	0	0	0	0	509	3	
8	0	0	0	0	509	3	
9	0	0	0	0	508	2	
10	0	0	0	0	511	0	
11	0	0	0	0	512	3	
12	0	0	0	0	511	3	
13	0	0	0	0	510	4	
14	0	0	0	0	510	8	
15	0	0	0	0	512	3	
0	0	0	0	0	512	3	
1	0	0	0	0	510	2	
2	0	0	0	0	511	0	
3	0	0	0	0	511	3	
4	0	0	0	0	508	3	
5	0	0	0	0	510	4	
6	0	0	0	0	510	8	
7	0	0	0	0	511	3	
8	0	0	0	0	512	3	
9	0	0	0	0	511	2	
10	0	0	0	0	513	0	
11	0	0	0	0	511	3	
12	0	0	0	0	510	3	
13	0	0	0	0	512	4	
14	0	0	0	0	508	8	
15	0	0	0	0	509	3	
0	0	0	0	0	512	3	
1	0	0	0	0	510	2	
2	0	0	0	0	511	0	
3	0	0	0	0	512	3	
4	0	0	0	0	511	3	
5	0	0	0	0	512	4	
6	0	0	0	0	510	8	
7	0	0	0	0	511	3	
8	0	0	0	0	511	3	
9	0	0	0	0	510	2	
10	0	0	0	0	511	0	
11	0	0	0	0	510	3	
12	0	0	0	0	511	3	
13	0	0	0	0	511	4	
14	0	0	0	0	510	8	
15	0	0	0	0	511	3	
0	0	0	0	0	512	3	
1	0	0	0	0	510	2	
2	0	0	0	0	511	0	
3	0	0	0	0	511	3	
4	0	0	0	0	510	3	
5	0	0	0	0	508	4	
6	0	0	0	0	511	8	
7	0	0	0	0	511	3	
8	0	0	0	0	511	3	
9	0	0	0	0	510	2	
10	0	0	0	0	511	0	
11	0	0	0	0	512	3	
12	0	0	0	0	511	3	
13	0	0	0	0	511	4	
14	0	0	0	0	511	8	
15	0	0	0	0	512	3	
0	0	0	0	0	508	3	
1	0	0	0	0	510	2	
2	0	0	0	0	510	0	
3	0	0	0	0	512	3	
4	0	0	0	0	512	3	
5	0	0	0	0	511	4	
6	0	0	0	0	509	8	
7	0	0	0	0	509	3	
8	0	0	0	0	510	3	
9	0	0	0	0	510	2	
10	0	0	0	0	510	0	
11	0	0	0	0	511	3	
12	0	0	0	0	512	3	
13	0	0	0	0	510	4	
14	0	0	0	0	511	8	
15	0	0	0	0	511	3	
0	0	0	0	0	510	3	
1	0	0	0	0	510	2	
2	0	0	0	0	512	0	
3	0	0	0	0	513	3	
4	0	0	0	0	512	3	
5	0	0	0	0	511	4	
6	0	0	0	0	508	8	
7	0	0	0	0	511	3	
8	0	0	0	0	510	3	
9	0	0	0	0	511	2	
10	0	0	0	0	512	0	
11	0	0	0	0	512	3	
12	0	0	0	0	512	3	
13	0	0	0	0	509	4	
14	0	0	0	0	512	8	
15	0	0	0	0	510	3	
0	0	0	0	0	509	3	
1	0	0	0	0	511	2	
2	0	0	0	0	511	0	
3	0	0	0	0	512	3	
4	0	0	0	0	511	3	
5	0	0	0	0	510	4	
6	0	0	0	0	512	8	
7	0	0	0	0	511	3	
8	0	0	0	0	512	3	
9	0	0	0	0	512	2	
10	0	0	0	0	511	0	
11	0	0	0	0	509	3	
12	0	0	0	0	510	3	
13	0	0	0	0	509	4	
14	0	0	0	0	510	8	
15	0	0	0	0	511	3	
0	0	0	0	0	511	3	
1	0	0	0	0	511	2	
2	0	0	0	0	511	0	
3	0	0	0	0	511	3	
4	0	0	0	0	510	3	
5	0	0	0	0	511	4	
6	0	0	0	0	509	8	
7	0	0	0	0	511	3	
8	0	0	0	0	511	3	
9	0	0	0	0	508	2	
10	0	0	0	0	510	0	
11	0	0	0	0	509	3	
12	0	0	0	0	510	3	
13	0	0	0	0	511	4	
14	0	0	0	0	513	8	
15	0	0	0	0	512	3	
0	0	0	0	0	511	3	
1	0	0	0	0	511	2	
2	0	0	0	0	514	0	
3	0	0	0	0	513	3	
4	0	0	0	0	511	3	
5	0	0	0	0	505	4	
6	0	0	0	0	508	8	
7	0	0	0	0	512	3	
8	0	0	0	0	511	3	
9	0	0	0	0	511	2	
10	0	0	0	0	510	0	
11	0	0	0	0	511	3	
12	0	0	0	0	510	3	
13	0	0	0	0	511	4	
14	0	0	0	0	513	8	
15	0	0	0	0	509	3	
0	0	0	0	0	511	3	
1	0	0	0	0	511	2	
2	0	0	0	0	511	0	
3	0	0	0	0	512	3	
4	0	0	0	0	513	3	
5	0	0	0	0	508	4	
6	0	0	0	0	511	8	
7	0	0	0	0	510	3	
8	0	0	0	0	511	3	
9	0	0	0	0	511	2	
10	0	0	0	0	510	0	
11	0	0	0	0	512	3	
12	0	0	0	0	511	3	
13	0	0	0	0	512	4	
14	0	0	0	0	509	8	
15	0	0	0	0	508	3	
0	0	0	0	0	511	3	
1	0	0	0	0	512	2	
2	0	0	0	0	510	0	
3	0	0	0	0	511	3	
4	0	0	0	0	510	3	
5	0	0	0	0	510	4	
6	0	0	0	0	510	8	
7	0	0	0	0	509	3	
8	0	0	0	0	511	3	
9	0	0	0	0	511	2	
10	0	0	0	0	512	0	
11	0	0	0	0	512	3	
12	0	0	0	0	511	3	
13	0	0	0	0	511	4	
14	0	0	0	0	512	8	
15	0	0	0	0	517	3	
0	0	0	0	0	511	3	
1	0	0	0	0	505	2	
2	0	0	0	0	507	0	
3	0	0	0	0	509	3	
4	0	0	0	0	509	3	
5	0	0	0	0	511	4	
6	0	0	0	0	511	8	
7	0	0	0	0	512	3	
8	0	0	0	0	511	3	
9	0	0	0	0	510	2	
10	0	0	0	0	511	0	
11	0	0	0	0	509	3	
12	0	0	0	0	510	3	
13	0	0	0	0	509	4	
14	0	0	0	0	510	8	
15	0	0	0	0	509	3	
0	0	0	0	0	511	3	
1	0	0	0	0	512	2	
2	0	0	0	0	510	0	
3	0	0	0	0	512	3	
4	0	0	0	0	510	3	
5	0	0	0	0	511	4	
6	0	0	0	0	511	8	
7	0	0	0	0	510	3	
8	0	0	0	0	510	3	
9	0	0	0	0	511	2	
10	0	0	0	0	511	0	
11	0	0	0	0	510	3	
12	0	0	0	0	510	3	
13	0	0	0	0	510	4	
14	0	0	0	0	510	8	
15	0	0	0	0	510	3	
0	0	0	0	0	511	3	
1	0	0	0	0	510	2	
2	0	0	0	0	511	0	
3	0	0	0	0	511	3	
4	0	0	0	0	511	3	
5	0	0	0	0	515	4	
6	0	0	0	0	512	8	
7	0	0	0	0	511	3	
8	0	0	0	0	509	3	
9	0	0	0	0	512	2	
10	0	0	0	0	512	0	
11	0	0	0	0	509	3	
12	0	0	0	0	512	3	
13	0	0	0	0	509	4	
14	0	0	0	0	510	8	
15	0	0	0	0	510	3	
0	0	0	0	0	511	3	
1	0	0	0	0	511	2	
2	0	0	0	0	510	0	
3	0	0	0	0	510	3	
4	0	0	0	0	510	3	
5	0	0	0	0	511	4	
6	0	0	0	0	511	8	
7	0	0	0	0	509	3	
8	0	0	0	0	511	3	
9	0	0	0	0	510	2	
10	0	0	0	0	510	0	
11	0	0	0	0	509	3	
12	0	0	0	0	512	3	
13	0	0	0	0	511	4	
14	0	0	0	0	511	8	
15	0	0	0	0	513	3	
0	0	0	0	0	510	3	
1	0	0	0	0	511	2	
2	0	0	0	0	510	0	
3	0	0	0	0	512	3	
4	0	0	0	0	510	3	
5	0	0	0	0	510	4	
6	0	0	0	0	511	8	
7	0	0	0	0	510	3	
8	0	0	0	0	511	3	
9	0	0	0	0	510	2	
10	0	0	0	0	509	0	
11	0	0	0	0	510	3	
12	0	0	0	0	511	3	
13	0	0	0	0	511	4	
14	0	0	0	0	511	8	
15	0	0	0	0	511	3	
0	0	0	0	0	509	3	
1	0	0	0	0	511	2	
2	0	0	0	0	512	0	
3	0	0	0	0	509	3	
4	0	0	0	0	511	3	
5	0	0	0	0	511	4	
6	0	0	0	0	512	8	
7	0	0	0	0	513	3	
8	0	0	0	0	514	3	
9	0	0	0	0	510	2	
10	0	0	0	0	508	0	
11	0	0	0	0	513	3	
12	0	0	0	0	511	3	
13	0	0	0	0	508	4	
14	0	0	0	0	511	8	
15	0	0	0	0	511	3	
0	0	0	0	0	512	3	
1	0	0	0	0	507	2	
2	0	0	0	0	508	0	
3	0	0	0	0	510	3	
4	0	0	0	0	512	3	
5	0	0	0	0	513	4	
6	0	0	0	0	510	8	
7	0	0	0	0	511	3	
8	0	0	0	0	512	3	
9	0	0	0	0	511	2	
10	0	0	0	0	511	0	
11	0	0	0	0	508	3	
12	0	0	0	0	510	3	
13	0	0	0	0	511	4	
14	0	0	0	0	512	8	
15	0	0	0	0	511	3	
0	0	0	0	0	511	3	
1	0	0	0	0	511	2	
2	0	0	0	0	513	0	
3	0	0	0	0	510	3	
4	0	0	0	0	510	3	
5	0	0	0	0	509	4	
6	0	0	0	0	509	8	
7	0	0	0	0	510	3	
8	0	0	0	0	510	3	
9	0	0	0	0	512	2	
10	0	0	0	0	511	0	
11	0	0	0	0	511	3	
12	0	0	0	0	511	3	
13	0	0	0	0	507	4	
14	0	0	0	0	508	8	
15	0	0	0	0	510	3	
0	0	0	0	0	510	3	
1	0	0	0	0	512	2	
2	0	0	0	0	511	0	
3	0	0	0	0	512	3	
4	0	0	0	0	512	3	
5	0	0	0	0	509	4	
6	0	0	0	0	509	8	
7	0	0	0	0	510	3	
8	0	0	0	0	510	3	
9	0	0	0	0	509	2	
10	0	0	0	0	512	0	
11	0	0	0	0	511	3	
12	0	0	0	0	511	3	
13	0	0	0	0	512	4	
14	0	0	0	0	511	8	
15	0	0	0	0	512	3	
0	0	0	0	0	510	3	
1	0	0	0	0	511	2	
2	0	0	0	0	510	0	
3	0	0	0	0	509	3	
4	0	0	0	0	510	3	
5	0	0	0	0	512	4	
6	0	0	0	0	511	8	
7	0	0	0	0	511	3	
8	0	0	0	0	510	3	
9	0	0	0	0	511	2	
10	0	0	0	0	511	0	
11	0	0	0	0	510	3	
12	0	0	0	0	512	3	
13	0	0	0	0	511	4	
14	0	0	0	0	510	8	
15	0	0	0	0	511	3	
0	0	0	0	0	513	3	
1	0	0	0	0	510	2	
2	0	0	0	0	511	0	
3	0	0	0	0	509	3	
4	0	0	0	0	510	3	
5	0	0	0	0	511	4	
6	0	0	0	0	509	8	
7	0	0	0	0	510	3	
8	0	0	0	0	511	3	
9	0	0	0	0	508	2	
10	0	0	0	0	509	0	
11	0	0	0	0	513	3	
12	0	0	0	0	513	3	
13	0	0	0	0	511	4	
14	0	0	0	0	511	8	
15	0	0	0	0	511	3	
0	0	0	0	0	510	3	
1	0	0	0	0	508	2	
2	0	0	0	0	512	0	
3	0	0	0	0	510	3	
4	0	0	0	0	510	3	
5	0	0	0	0	509	4	
6	0	0	0	0	509	8	
7	0	0	0	0	511	3	
8	0	0	0	0	514	3	
9	0	0	0	0	511	2	
10	0	0	0	0	511	0	
11	0	0	0	0	511	3	
12	0	0	0	0	511	3	
13	0	0	0	0	509	4	
14	0	0	0	0	511	8	
15	0	0	0	0	512	3	
0	0	0	0	0	511	3	
1	0	0	0	0	510	2	
2	0	0	0	0	513	0	
3	0	0	0	0	511	3	
4	0	0	0	0	511	3	
5	0	0	0	0	509	4	
6	0	0	0	0	508	8	
7	0	0	0	0	510	3	
8	0	0	0	0	511	3	
9	0	0	0	0	513	2	
10	0	0	0	0	512	0	
11	0	0	0	0	511	3	
12	0	0	0	0	509	3	
13	0	0	0	0	510	4	
14	0	0	0	0	510	8	
15	0	0	0	0	511	3	
0	0	0	0	0	511	3	
1	0	0	0	0	512	2	
2	0	0	0	0	513	0	
3	0	0	0	0	514	3	
4	0	0	0	0	509	3	
5	0	0	0	0	507	4	
6	0	0	0	0	510	8	
7	0	0	0	0	510	3	
8	0	0	0	0	510	3	
9	0	0	0	0	509	2	
10	0	0	0	0	512	0	
11	0	0	0	0	512	3	
12	0	0	0	0	512	3	
13	0	0	0	0	511	4	
14	0	0	0	0	512	8	
15	0	0	0	0	510	3	
0	0	0	0	0	513	3	
1	0	0	0	0	510	2	
2	0	0	0	0	511	0	
3	0	0	0	0	511	3	
4	0	0	0	0	510	3	
5	0	0	0	0	511	4	
6	0	0	0	0	509	8	
7	0	0	0	0	511	3	
8	0	0	0	0	510	3	
9	0	0	0	0	512	2	
10	0	0	0	0	510	0	
11	0	0	0	0	511	3	
12	0	0	0	0	510	3	
13	0	0	0	0	511	4	
14	0	0	0	0	510	8	
15	0	0	0	0	511	3	
0	0	0	0	0	509	3	
1	0	0	0	0	508	2	
2	0	0	0	0	510	0	
3	0	0	0	0	512	3	
4	0	0	0	0	513	3	
5	0	0	0	0	511	4	
6	0	0	0	0	512	8	
7	0	0	0	0	511	3	
8	0	0	0	0	510	3	
9	0	0	0	0	512	2	
10	0	0	0	0	511	0	
11	0	0	0	0	510	3	
12	0	0	0	0	510	3	
13	0	0	0	0	510	4	
14	0	0	0	0	511	8	
15	0	0	0	0	508	3	
0	0	0	0	0	511	3	
1	0	0	0	0	512	2	
2	0	0	0	0	513	0	
3	0	0	0	0	512	3	
4	0	0	0	0	512	3	
5	0	0	0	0	511	4	
6	0	0	0	0	508	8	
7	0	0	0	0	511	3	
8	0	0	0	0	511	3	
9	0	0	0	0	511	2	
10	0	0	0	0	509	0	
11	0	0	0	0	510	3	
12	0	0	0	0	508	3	
13	0	0	0	0	510	4	
14	0	0	0	0	509	8	
15	0	0	0	0	512	3	
0	0	0	0	0	512	3	
1	0	0	0	0	510	2	
2	0	0	0	0	511	0	
3	0	0	0	0	512	3	
4	0	0	0	0	511	3	
5	0	0	0	0	510	4	
6	0	0	0	0	511	8	
7	0	0	0	0	511	3	
8	0	0	0	0	512	3	
9	0	0	0	0	510	2	
10	0	0	0	0	510	0	
11	0	0	0	0	508	3	
12	0	0	0	0	511	3	
13	0	0	0	0	510	4	
14	0	0	0	0	508	8	
15	0	0	0	0	511	3	
0	0	0	0	0	510	3	
1	0	0	0	0	510	2	
2	0	0	0	0	511	0	
3	0	0	0	0	512	3	
4	0	0	0	0	511	3	
5	0	0	0	0	510	4	
6	0	0	0	0	510	8	
7	0	0	0	0	510	3	
8	0	0	0	0	511	3	
9	0	0	0	0	511	2	
10	0	0	0	0	511	0	
11	0	0	0	0	512	3	
12	0	0	0	0	510	3	
13	0	0	0	0	510	4	
14	0	0	0	0	511	8	
15	0	0	0	0	511	3	
0	0	0	0	0	508	3	
1	0	0	0	0	511	2	
2	0	0	0	0	511	0	
3	0	0	0	0	510	3	
4	0	0	0	0	511	3	
5	0	0	0	0	512	4	
6	0	0	0	0	510	8	
7	0	0	0	0	510	3	
8	0	0	0	0	511	3	
9	0	0	0	0	511	2	
10	0	0	0	0	510	0	
11	0	0	0	0	509	3	
12	0	0	0	0	510	3	
13	0	0	0	0	512	4	
14	0	0	0	0	511	8	
15	0	0	0	0	512	3	
0	0	0	0	0	511	3	
1	0	0	0	0	510	2	
2	0	0	0	0	510	0	
3	0	0	0	0	510	3	
4	0	0	0	0	510	3	
5	0	0	0	0	511	4	
6	0	0	0	0	512	8	
7	0	0	0	0	510	3	
8	0	0	0	0	510	3	
9	0	0	0	0	509	2	
10	0	0	0	0	510	0	
11	0	0	0	0	511	3	
12	0	0	0	0	509	3	
13	0	0	0	0	510	4	
14	0	0	0	0	510	8	
15	0	0	0	0	510	3	
0	0	0	0	0	513	3	
1	0	0	0	0	513	2	
2	0	0	0	0	509	0	
3	0	0	0	0	512	3	
4	0	0	0	0	511	3	
5	0	0	0	0	510	4	
6	0	0	0	0	511	8	
7	0	0	0	0	511	3	
8	0	0	0	0	511	3	
9	0	0	0	0	510	2	
10	0	0	0	0	509	0	
11	0	0	0	0	509	3	
12	0	0	0	0	511	3	
13	0	0	0	0	508	4	
14	0	0	0	0	511	8	
15	0	0	0	0	512	3	
0	0	0	0	0	510	3	
1	0	0	0	0	512	2	
2	0	0	0	0	512	0	
3	0	0	0	0	508	3	
4	0	0	0	0	507	3	
5	0	0	0	0	510	4	
6	0	0	0	0	510	8	
7	0	0	0	0	511	3	
8	0	0	0	0	511	3	
9	0	0	0	0	511	2	
10	0	0	0	0	515	0	
11	0	0	0	0	509	3	
12	0	0	0	0	510	3	
13	0	0	0	0	510	4	
14	0	0	0	0	510	8	
15	0	0	0	0	512	3	
0	0	0	0	0	511	3	
1	0	0	0	0	512	2	
2	0	0	0	0	510	0	
3	0	0	0	0	509	3	
4	0	0	0	0	512	3	
5	0	0	0	0	511	4	
6	0	0	0	0	512	8	
7	0	0	0	0	511	3	
8	0	0	0	0	509	3	
9	0	0	0	0	509	2	
10	0	0	0	0	511	0	
11	0	0	0	0	512	3	
12	0	0	0	0	512	3	
13	0	0	0	0	511	4	
14	0	0	0	0	510	8	
15	0	0	0	0	511	3	
0	0	0	0	0	512	3	
1	0	0	0	0	511	2	
2	0	0	0	0	512	0	
3	0	0	0	0	510	3	
4	0	0	0	0	511	3	
5	0	0	0	0	511	4	
6	0	0	0	0	511	8	
7	0	0	0	0	512	3	
8	0	0	0	0	513	3	
9	0	0	0	0	509	2	
10	0	0	0	0	507	0	
11	0	0	0	0	512	3	
12	0	0	0	0	511	3	
13	0	0	0	0	511	4	
14	0	0	0	0	510	8	
15	0	0	0	0	511	3	
0	0	0	0	0	512	3	
1	0	0	0	0	511	2	
2	0	0	0	0	511	0	
3	0	0	0	0	512	3	
4	0	0	0	0	512	3	
5	0	0	0	0	511	4	
6	0	0	0	0	509	8	
7	0	0	0	0	510	3	
8	0	0	0	0	508	3	
9	0	0	0	0	511	2	
10	0	0	0	0	511	0	
11	0	0	0	0	510	3	
12	0	0	0	0	511	3	
13	0	0	0	0	512	4	
14	0	0	0	0	508	8	
15	0	0	0	0	511	3	
0	0	0	0	0	511	3	
1	0	0	0	0	512	2	
2	0	0	0	0	512	0	
3	0	0	0	0	510	3	
4	0	0	0	0	510	3	
5	0	0	0	0	509	4	
6	0	0	0	0	512	8	
7	0	0	0	0	510	3	
8	0	0	0	0	513	3	
9	0	0	0	0	511	2	
10	0	0	0	0	510	0	
11	0	0	0	0	508	3	
12	0	0	0	0	511	3	
13	0	0	0	0	511	4	
14	0	0	0	0	511	8	
15	0	0	0	0	511	3	
0	0	0	0	0	510	3	
1	0	0	0	0	510	2	
2	0	0	0	0	511	0	
3	0	0	0	0	511	3	
4	0	0	0	0	510	3	
5	0	0	0	0	510	4	
6	0	0	0	0	510	8	
7	0	0	0	0	510	3	
8	0	0	0	0	510	3	
9	0	0	0	0	511	2	
10	0	0	0	0	513	0	
11	0	0	0	0	511	3	
12	0	0	0	0	511	3	
13	0	0	0	0	511	4	
14	0	0	0	0	511	8	
15	0	0	0	0	512	3	
0	0	0	0	0	511	3	
1	0	0	0	0	511	2	
